id,Total Microseconds,Minute,Seconds,Value
6,1784,0,0.001784,509.0
7,2620,0,0.00262,512.0
8,3452,0,0.003452,513.0
9,4284,0,0.004284,510.0
10,5120,0,0.00512,512.0
11,5952,0,0.005952,512.0
12,6784,0,0.006784,510.0
13,7620,0,0.00762,508.0
14,8452,0,0.008452,511.0
15,9284,0,0.009284,510.0
16,10120,0,0.01012,509.0
17,10952,0,0.010952,512.0
18,11788,0,0.011788,512.0
19,12620,0,0.01262,506.0
20,13452,0,0.013452,510.0
21,14288,0,0.014288,511.0
22,15120,0,0.01512,511.0
23,15952,0,0.015952,509.0
24,16788,0,0.016788,512.0
25,17620,0,0.01762,511.0
26,18452,0,0.018452,510.0
27,19288,0,0.019288,513.0
28,20120,0,0.02012,509.0
29,20952,0,0.020952,504.0
30,21788,0,0.021788,513.0
31,22620,0,0.02262,512.0
32,23452,0,0.023452,508.0
33,24288,0,0.024288,512.0
34,25120,0,0.02512,510.0
35,25952,0,0.025952,510.0
36,26788,0,0.026788,510.0
37,27620,0,0.02762,511.0
38,28452,0,0.028452,509.0
39,29288,0,0.029288,504.0
40,30120,0,0.03012,511.0
41,30952,0,0.030952,509.0
42,31788,0,0.031788,505.0
43,32620,0,0.03262,510.0
44,33452,0,0.033452,513.0
45,34288,0,0.034288,508.0
46,35120,0,0.03512,513.0
47,35952,0,0.035952,511.0
48,36788,0,0.036788,508.0
49,37620,0,0.03762,507.0
50,38452,0,0.038452,510.0
51,39288,0,0.039288,506.0
52,40120,0,0.04012,513.0
53,40956,0,0.040956,512.0
54,41788,0,0.041788,512.0
55,42620,0,0.04262,510.0
56,43456,0,0.043456,512.0
57,44288,0,0.044288,508.0
58,45120,0,0.04512,508.0
59,45956,0,0.045956,508.0
60,46788,0,0.046788,508.0
61,47620,0,0.04762,505.0
62,48456,0,0.048456,513.0
63,49288,0,0.049288,513.0
64,50120,0,0.05012,508.0
65,50956,0,0.050956,512.0
66,51788,0,0.051788,513.0
67,52620,0,0.05262,509.0
68,53456,0,0.053456,514.0
69,54288,0,0.054288,511.0
70,55120,0,0.05512,512.0
71,55956,0,0.055956,509.0
72,56788,0,0.056788,512.0
73,57620,0,0.05762,510.0
74,58456,0,0.058456,511.0
75,59288,0,0.059288,512.0
76,60120,0,0.06012,511.0
77,60956,0,0.060956,508.0
78,61788,0,0.061788,507.0
79,62620,0,0.06262,508.0
80,63456,0,0.063456,508.0
81,64288,0,0.064288,510.0
82,65120,0,0.06512,511.0
83,65956,0,0.065956,509.0
84,66788,0,0.066788,512.0
85,67624,0,0.067624,512.0
86,68456,0,0.068456,511.0
87,69288,0,0.069288,511.0
88,70124,0,0.070124,511.0
89,70956,0,0.070956,510.0
90,71788,0,0.071788,509.0
91,72624,0,0.072624,507.0
92,73456,0,0.073456,510.0
93,74288,0,0.074288,510.0
94,75124,0,0.075124,513.0
95,75956,0,0.075956,513.0
96,76788,0,0.076788,508.0
97,77624,0,0.077624,510.0
98,78456,0,0.078456,509.0
99,79288,0,0.079288,508.0
100,80124,0,0.080124,511.0
101,80956,0,0.080956,509.0
102,81788,0,0.081788,511.0
103,82624,0,0.082624,511.0
104,83456,0,0.083456,512.0
105,84288,0,0.084288,512.0
106,85124,0,0.085124,508.0
107,85956,0,0.085956,513.0
108,86788,0,0.086788,510.0
109,87624,0,0.087624,509.0
110,88456,0,0.088456,509.0
111,89288,0,0.089288,510.0
112,90124,0,0.090124,507.0
113,90956,0,0.090956,513.0
114,91788,0,0.091788,513.0
115,92624,0,0.092624,509.0
116,93456,0,0.093456,508.0
117,94292,0,0.094292,514.0
118,95124,0,0.095124,513.0
119,95956,0,0.095956,508.0
120,96792,0,0.096792,512.0
121,97624,0,0.097624,509.0
122,98456,0,0.098456,509.0
123,99292,0,0.099292,510.0
124,100124,0,0.100124,512.0
125,100956,0,0.100956,511.0
126,101792,0,0.101792,513.0
127,102624,0,0.102624,511.0
128,103456,0,0.103456,507.0
129,104292,0,0.104292,511.0
130,105124,0,0.105124,511.0
131,105956,0,0.105956,511.0
132,106792,0,0.106792,510.0
133,107624,0,0.107624,509.0
134,108456,0,0.108456,505.0
135,109292,0,0.109292,510.0
136,110124,0,0.110124,515.0
137,110956,0,0.110956,510.0
138,111792,0,0.111792,512.0
139,112624,0,0.112624,503.0
140,113456,0,0.113456,510.0
141,114292,0,0.114292,510.0
142,115124,0,0.115124,506.0
143,115956,0,0.115956,509.0
144,116792,0,0.116792,511.0
145,117624,0,0.117624,510.0
146,118456,0,0.118456,512.0
147,119292,0,0.119292,512.0
148,120124,0,0.120124,506.0
149,120960,0,0.12096,512.0
150,121792,0,0.121792,513.0
151,122624,0,0.122624,507.0
152,123460,0,0.12346,509.0
153,124292,0,0.124292,508.0
154,125124,0,0.125124,510.0
155,125960,0,0.12596,513.0
156,126792,0,0.126792,512.0
157,127624,0,0.127624,510.0
158,128460,0,0.12846,511.0
159,129292,0,0.129292,511.0
160,130124,0,0.130124,506.0
161,130960,0,0.13096,511.0
162,131792,0,0.131792,510.0
163,132624,0,0.132624,507.0
164,133460,0,0.13346,512.0
165,134292,0,0.134292,510.0
166,135124,0,0.135124,509.0
167,135960,0,0.13596,511.0
168,136792,0,0.136792,511.0
169,137624,0,0.137624,508.0
170,138460,0,0.13846,508.0
171,139292,0,0.139292,500.0
172,140124,0,0.140124,510.0
173,140960,0,0.14096,511.0
174,141792,0,0.141792,509.0
175,142624,0,0.142624,514.0
176,143460,0,0.14346,514.0
177,144292,0,0.144292,510.0
178,145128,0,0.145128,510.0
179,145960,0,0.14596,514.0
180,146792,0,0.146792,508.0
181,147628,0,0.147628,512.0
182,148460,0,0.14846,512.0
183,149292,0,0.149292,504.0
184,150128,0,0.150128,512.0
185,150960,0,0.15096,513.0
186,151792,0,0.151792,510.0
187,152628,0,0.152628,512.0
188,153460,0,0.15346,510.0
189,154292,0,0.154292,509.0
190,155128,0,0.155128,509.0
191,155960,0,0.15596,514.0
192,156792,0,0.156792,510.0
193,157628,0,0.157628,514.0
194,158460,0,0.15846,512.0
195,159292,0,0.159292,508.0
196,160128,0,0.160128,510.0
197,160960,0,0.16096,507.0
198,161792,0,0.161792,505.0
199,162628,0,0.162628,512.0
200,163460,0,0.16346,512.0
201,164292,0,0.164292,507.0
202,165128,0,0.165128,510.0
203,165960,0,0.16596,508.0
204,166792,0,0.166792,514.0
205,167628,0,0.167628,513.0
206,168460,0,0.16846,507.0
207,169292,0,0.169292,512.0
208,170128,0,0.170128,502.0
209,170960,0,0.17096,508.0
210,171792,0,0.171792,510.0
211,172628,0,0.172628,513.0
212,173460,0,0.17346,510.0
213,174296,0,0.174296,513.0
214,175128,0,0.175128,512.0
215,175960,0,0.17596,507.0
216,176796,0,0.176796,513.0
217,177628,0,0.177628,512.0
218,178460,0,0.17846,508.0
219,179296,0,0.179296,511.0
220,180128,0,0.180128,509.0
221,180960,0,0.18096,508.0
222,181796,0,0.181796,510.0
223,182628,0,0.182628,514.0
224,183460,0,0.18346,509.0
225,184296,0,0.184296,512.0
226,185128,0,0.185128,509.0
227,185960,0,0.18596,507.0
228,186796,0,0.186796,513.0
229,187628,0,0.187628,509.0
230,188460,0,0.18846,510.0
231,189296,0,0.189296,510.0
232,190128,0,0.190128,512.0
233,190960,0,0.19096,507.0
234,191796,0,0.191796,511.0
235,192628,0,0.192628,506.0
236,193460,0,0.19346,511.0
237,194296,0,0.194296,512.0
238,195128,0,0.195128,506.0
239,195960,0,0.19596,511.0
240,196796,0,0.196796,514.0
241,197628,0,0.197628,508.0
242,198464,0,0.198464,515.0
243,199296,0,0.199296,514.0
244,200128,0,0.200128,510.0
245,200964,0,0.200964,507.0
246,201796,0,0.201796,510.0
247,202628,0,0.202628,504.0
248,203464,0,0.203464,508.0
249,204296,0,0.204296,513.0
250,205128,0,0.205128,510.0
251,205964,0,0.205964,514.0
252,206796,0,0.206796,510.0
253,207628,0,0.207628,513.0
254,208464,0,0.208464,515.0
255,209296,0,0.209296,513.0
256,210128,0,0.210128,511.0
257,210964,0,0.210964,510.0
258,211796,0,0.211796,512.0
259,212628,0,0.212628,508.0
260,213464,0,0.213464,514.0
261,214296,0,0.214296,511.0
262,215128,0,0.215128,510.0
263,215964,0,0.215964,508.0
264,216796,0,0.216796,510.0
265,217628,0,0.217628,511.0
266,218464,0,0.218464,513.0
267,219296,0,0.219296,507.0
268,220128,0,0.220128,512.0
269,220964,0,0.220964,512.0
270,221796,0,0.221796,508.0
271,222628,0,0.222628,511.0
272,223464,0,0.223464,513.0
273,224296,0,0.224296,507.0
274,225128,0,0.225128,511.0
275,225964,0,0.225964,508.0
276,226796,0,0.226796,509.0
277,227632,0,0.227632,511.0
278,228464,0,0.228464,510.0
279,229296,0,0.229296,507.0
280,230132,0,0.230132,508.0
281,230964,0,0.230964,510.0
282,231796,0,0.231796,505.0
283,232632,0,0.232632,511.0
284,233464,0,0.233464,512.0
285,234296,0,0.234296,511.0
286,235132,0,0.235132,511.0
287,235964,0,0.235964,512.0
288,236796,0,0.236796,510.0
289,237632,0,0.237632,509.0
290,238464,0,0.238464,512.0
291,239296,0,0.239296,507.0
292,240132,0,0.240132,510.0
293,240964,0,0.240964,512.0
294,241796,0,0.241796,511.0
295,242632,0,0.242632,513.0
296,243464,0,0.243464,508.0
297,244296,0,0.244296,507.0
298,245132,0,0.245132,509.0
299,245964,0,0.245964,506.0
300,246796,0,0.246796,507.0
301,247632,0,0.247632,509.0
302,248464,0,0.248464,508.0
303,249296,0,0.249296,513.0
304,250132,0,0.250132,513.0
305,250964,0,0.250964,510.0
306,251800,0,0.2518,512.0
307,252632,0,0.252632,511.0
308,253464,0,0.253464,510.0
309,254300,0,0.2543,512.0
310,255132,0,0.255132,510.0
311,255964,0,0.255964,508.0
312,256800,0,0.2568,510.0
313,257632,0,0.257632,510.0
314,258464,0,0.258464,510.0
315,259300,0,0.2593,513.0
316,260132,0,0.260132,512.0
317,260964,0,0.260964,509.0
318,261800,0,0.2618,509.0
319,262632,0,0.262632,506.0
320,263464,0,0.263464,506.0
321,264300,0,0.2643,511.0
322,265132,0,0.265132,512.0
323,265964,0,0.265964,510.0
324,266800,0,0.2668,513.0
325,267632,0,0.267632,512.0
326,268464,0,0.268464,512.0
327,269300,0,0.2693,514.0
328,270132,0,0.270132,512.0
329,270964,0,0.270964,510.0
330,271800,0,0.2718,509.0
331,272632,0,0.272632,508.0
332,273464,0,0.273464,512.0
333,274300,0,0.2743,510.0
334,275132,0,0.275132,509.0
335,275964,0,0.275964,512.0
336,276800,0,0.2768,512.0
337,277632,0,0.277632,505.0
338,278468,0,0.278468,507.0
339,279300,0,0.2793,510.0
340,280132,0,0.280132,510.0
341,280968,0,0.280968,513.0
342,281800,0,0.2818,509.0
343,282632,0,0.282632,508.0
344,283468,0,0.283468,513.0
345,284300,0,0.2843,513.0
346,285132,0,0.285132,509.0
347,285968,0,0.285968,511.0
348,286800,0,0.2868,509.0
349,287632,0,0.287632,509.0
350,288468,0,0.288468,511.0
351,289300,0,0.2893,510.0
352,290132,0,0.290132,509.0
353,290968,0,0.290968,513.0
354,291800,0,0.2918,513.0
355,292632,0,0.292632,511.0
356,293468,0,0.293468,508.0
357,294300,0,0.2943,510.0
358,295132,0,0.295132,510.0
359,295968,0,0.295968,512.0
360,296800,0,0.2968,512.0
361,297632,0,0.297632,508.0
362,298468,0,0.298468,511.0
363,299300,0,0.2993,507.0
364,300132,0,0.300132,510.0
365,300968,0,0.300968,512.0
366,301800,0,0.3018,506.0
367,302632,0,0.302632,512.0
368,303468,0,0.303468,511.0
369,304300,0,0.3043,509.0
370,305132,0,0.305132,512.0
371,305968,0,0.305968,512.0
372,306800,0,0.3068,508.0
373,307636,0,0.307636,510.0
374,308468,0,0.308468,506.0
375,309300,0,0.3093,506.0
376,310136,0,0.310136,516.0
377,310968,0,0.310968,514.0
378,311800,0,0.3118,509.0
379,312636,0,0.312636,511.0
380,313468,0,0.313468,509.0
381,314300,0,0.3143,510.0
382,315136,0,0.315136,513.0
383,315968,0,0.315968,510.0
384,316800,0,0.3168,509.0
385,317636,0,0.317636,509.0
386,318472,0,0.318472,512.0
387,319300,0,0.3193,511.0
388,320136,0,0.320136,514.0
389,320968,0,0.320968,512.0
390,321800,0,0.3218,507.0
391,322636,0,0.322636,509.0
392,323468,0,0.323468,508.0
393,324300,0,0.3243,507.0
394,325136,0,0.325136,513.0
395,325968,0,0.325968,510.0
396,326800,0,0.3268,513.0
397,327636,0,0.327636,511.0
398,328468,0,0.328468,506.0
399,329300,0,0.3293,511.0
400,330136,0,0.330136,511.0
401,330968,0,0.330968,507.0
402,331804,0,0.331804,509.0
403,332636,0,0.332636,509.0
404,333468,0,0.333468,509.0
405,334304,0,0.334304,510.0
406,335136,0,0.335136,513.0
407,335968,0,0.335968,510.0
408,336804,0,0.336804,511.0
409,337636,0,0.337636,510.0
410,338468,0,0.338468,505.0
411,339304,0,0.339304,507.0
412,340136,0,0.340136,511.0
413,340968,0,0.340968,508.0
414,341804,0,0.341804,513.0
415,342636,0,0.342636,511.0
416,343468,0,0.343468,508.0
417,344304,0,0.344304,513.0
418,345136,0,0.345136,512.0
419,345968,0,0.345968,510.0
420,346804,0,0.346804,511.0
421,347636,0,0.347636,507.0
422,348468,0,0.348468,507.0
423,349304,0,0.349304,511.0
424,350136,0,0.350136,513.0
425,350968,0,0.350968,513.0
426,351804,0,0.351804,512.0
427,352636,0,0.352636,508.0
428,353468,0,0.353468,509.0
429,354304,0,0.354304,507.0
430,355136,0,0.355136,506.0
431,355968,0,0.355968,509.0
432,356804,0,0.356804,514.0
433,357636,0,0.357636,510.0
434,358468,0,0.358468,514.0
435,359304,0,0.359304,512.0
436,360136,0,0.360136,508.0
437,360972,0,0.360972,511.0
438,361804,0,0.361804,509.0
439,362636,0,0.362636,508.0
440,363472,0,0.363472,510.0
441,364304,0,0.364304,509.0
442,365136,0,0.365136,509.0
443,365972,0,0.365972,513.0
444,366804,0,0.366804,514.0
445,367636,0,0.367636,508.0
446,368472,0,0.368472,510.0
447,369304,0,0.369304,507.0
448,370136,0,0.370136,508.0
449,370972,0,0.370972,510.0
450,371804,0,0.371804,512.0
451,372636,0,0.372636,510.0
452,373472,0,0.373472,512.0
453,374304,0,0.374304,511.0
454,375136,0,0.375136,512.0
455,375972,0,0.375972,514.0
456,376804,0,0.376804,513.0
457,377636,0,0.377636,507.0
458,378472,0,0.378472,508.0
459,379304,0,0.379304,504.0
460,380136,0,0.380136,511.0
461,380972,0,0.380972,511.0
462,381804,0,0.381804,510.0
463,382636,0,0.382636,510.0
464,383472,0,0.383472,511.0
465,384304,0,0.384304,505.0
466,385136,0,0.385136,512.0
467,385972,0,0.385972,512.0
468,386804,0,0.386804,507.0
469,387640,0,0.38764,511.0
470,388472,0,0.388472,509.0
471,389304,0,0.389304,508.0
472,390140,0,0.39014,512.0
473,390972,0,0.390972,511.0
474,391804,0,0.391804,511.0
475,392640,0,0.39264,512.0
476,393472,0,0.393472,512.0
477,394304,0,0.394304,508.0
478,395140,0,0.39514,509.0
479,395972,0,0.395972,509.0
480,396804,0,0.396804,509.0
481,397640,0,0.39764,512.0
482,398472,0,0.398472,511.0
483,399304,0,0.399304,509.0
484,400140,0,0.40014,511.0
485,400972,0,0.400972,513.0
486,401804,0,0.401804,508.0
487,402640,0,0.40264,513.0
488,403472,0,0.403472,510.0
489,404304,0,0.404304,506.0
490,405140,0,0.40514,510.0
491,405972,0,0.405972,507.0
492,406804,0,0.406804,512.0
493,407640,0,0.40764,513.0
494,408472,0,0.408472,507.0
495,409304,0,0.409304,509.0
496,410140,0,0.41014,508.0
497,410972,0,0.410972,509.0
498,411808,0,0.411808,511.0
499,412640,0,0.41264,512.0
500,413472,0,0.413472,509.0
501,414308,0,0.414308,511.0
502,415140,0,0.41514,509.0
503,415972,0,0.415972,509.0
504,416808,0,0.416808,512.0
505,417640,0,0.41764,513.0
506,418472,0,0.418472,508.0
507,419308,0,0.419308,508.0
508,420140,0,0.42014,511.0
509,420972,0,0.420972,511.0
510,421808,0,0.421808,514.0
511,422640,0,0.42264,513.0
512,423472,0,0.423472,508.0
513,424308,0,0.424308,513.0
514,425140,0,0.42514,507.0
515,425972,0,0.425972,506.0
516,426808,0,0.426808,513.0
517,427640,0,0.42764,510.0
518,428472,0,0.428472,508.0
519,429308,0,0.429308,510.0
520,430140,0,0.43014,512.0
521,430972,0,0.430972,508.0
522,431808,0,0.431808,510.0
523,432640,0,0.43264,506.0
524,433472,0,0.433472,512.0
525,434308,0,0.434308,513.0
526,435140,0,0.43514,509.0
527,435972,0,0.435972,512.0
528,436808,0,0.436808,512.0
529,437640,0,0.43764,509.0
530,438472,0,0.438472,510.0
531,439308,0,0.439308,508.0
532,440140,0,0.44014,505.0
533,440976,0,0.440976,511.0
534,441808,0,0.441808,514.0
535,442640,0,0.44264,510.0
536,443476,0,0.443476,512.0
537,444308,0,0.444308,512.0
538,445140,0,0.44514,509.0
539,445976,0,0.445976,512.0
540,446808,0,0.446808,511.0
541,447640,0,0.44764,508.0
542,448476,0,0.448476,509.0
543,449308,0,0.449308,510.0
544,450140,0,0.45014,510.0
545,450976,0,0.450976,513.0
546,451808,0,0.451808,513.0
547,452640,0,0.45264,510.0
548,453476,0,0.453476,511.0
549,454308,0,0.454308,508.0
550,455140,0,0.45514,508.0
551,455976,0,0.455976,510.0
552,456808,0,0.456808,509.0
553,457640,0,0.45764,508.0
554,458476,0,0.458476,513.0
555,459308,0,0.459308,509.0
556,460140,0,0.46014,511.0
557,460976,0,0.460976,512.0
558,461808,0,0.461808,509.0
559,462640,0,0.46264,513.0
560,463476,0,0.463476,511.0
561,464308,0,0.464308,507.0
562,465140,0,0.46514,512.0
563,465976,0,0.465976,511.0
564,466808,0,0.466808,511.0
565,467644,0,0.467644,512.0
566,468476,0,0.468476,510.0
567,469308,0,0.469308,508.0
568,470144,0,0.470144,510.0
569,470976,0,0.470976,509.0
570,471808,0,0.471808,506.0
571,472644,0,0.472644,510.0
572,473476,0,0.473476,511.0
573,474308,0,0.474308,510.0
574,475144,0,0.475144,513.0
575,475976,0,0.475976,512.0
576,476808,0,0.476808,508.0
577,477644,0,0.477644,511.0
578,478476,0,0.478476,511.0
579,479308,0,0.479308,508.0
580,480144,0,0.480144,510.0
581,480976,0,0.480976,510.0
582,481808,0,0.481808,508.0
583,482644,0,0.482644,513.0
584,483476,0,0.483476,512.0
585,484308,0,0.484308,511.0
586,485144,0,0.485144,510.0
587,485976,0,0.485976,506.0
588,486808,0,0.486808,513.0
589,487644,0,0.487644,511.0
590,488476,0,0.488476,506.0
591,489308,0,0.489308,513.0
592,490144,0,0.490144,513.0
593,490976,0,0.490976,509.0
594,491808,0,0.491808,511.0
595,492644,0,0.492644,510.0
596,493476,0,0.493476,508.0
597,494312,0,0.494312,511.0
598,495144,0,0.495144,510.0
599,495976,0,0.495976,508.0
600,496812,0,0.496812,514.0
601,497644,0,0.497644,514.0
602,498476,0,0.498476,511.0
603,499312,0,0.499312,511.0
604,500144,0,0.500144,509.0
605,500976,0,0.500976,509.0
606,501812,0,0.501812,513.0
607,502644,0,0.502644,511.0
608,503476,0,0.503476,510.0
609,504312,0,0.504312,511.0
610,505144,0,0.505144,512.0
611,505976,0,0.505976,507.0
612,506812,0,0.506812,510.0
613,507644,0,0.507644,510.0
614,508476,0,0.508476,511.0
615,509312,0,0.509312,512.0
616,510144,0,0.510144,512.0
617,510976,0,0.510976,512.0
618,511812,0,0.511812,511.0
619,512644,0,0.512644,503.0
620,513476,0,0.513476,510.0
621,514312,0,0.514312,512.0
622,515144,0,0.515144,508.0
623,515976,0,0.515976,507.0
624,516812,0,0.516812,510.0
625,517644,0,0.517644,507.0
626,518476,0,0.518476,514.0
627,519312,0,0.519312,514.0
628,520144,0,0.520144,510.0
629,520980,0,0.52098,512.0
630,521812,0,0.521812,509.0
631,522644,0,0.522644,509.0
632,523480,0,0.52348,509.0
633,524312,0,0.524312,508.0
634,525144,0,0.525144,510.0
635,525980,0,0.52598,514.0
636,526812,0,0.526812,513.0
637,527644,0,0.527644,508.0
638,528480,0,0.52848,510.0
639,529312,0,0.529312,510.0
640,530144,0,0.530144,506.0
641,530980,0,0.53098,509.0
642,531812,0,0.531812,508.0
643,532644,0,0.532644,511.0
644,533480,0,0.53348,513.0
645,534312,0,0.534312,512.0
646,535144,0,0.535144,511.0
647,535980,0,0.53598,512.0
648,536812,0,0.536812,511.0
649,537644,0,0.537644,511.0
650,538480,0,0.53848,511.0
651,539312,0,0.539312,505.0
652,540144,0,0.540144,514.0
653,540980,0,0.54098,510.0
654,541812,0,0.541812,508.0
655,542644,0,0.542644,512.0
656,543480,0,0.54348,510.0
657,544312,0,0.544312,507.0
658,545144,0,0.545144,513.0
659,545980,0,0.54598,512.0
660,546812,0,0.546812,506.0
661,547648,0,0.547648,511.0
662,548480,0,0.54848,510.0
663,549312,0,0.549312,505.0
664,550148,0,0.550148,515.0
665,550980,0,0.55098,515.0
666,551812,0,0.551812,511.0
667,552648,0,0.552648,513.0
668,553480,0,0.55348,512.0
669,554312,0,0.554312,505.0
670,555148,0,0.555148,508.0
671,555980,0,0.55598,509.0
672,556812,0,0.556812,506.0
673,557648,0,0.557648,512.0
674,558480,0,0.55848,513.0
675,559312,0,0.559312,510.0
676,560148,0,0.560148,514.0
677,560980,0,0.56098,511.0
678,561812,0,0.561812,508.0
679,562648,0,0.562648,511.0
680,563480,0,0.56348,511.0
681,564312,0,0.564312,510.0
682,565148,0,0.565148,511.0
683,565980,0,0.56598,508.0
684,566812,0,0.566812,510.0
685,567648,0,0.567648,510.0
686,568480,0,0.56848,508.0
687,569312,0,0.569312,511.0
688,570148,0,0.570148,511.0
689,570980,0,0.57098,509.0
690,571812,0,0.571812,510.0
691,572648,0,0.572648,509.0
692,573480,0,0.57348,507.0
693,574316,0,0.574316,508.0
694,575148,0,0.575148,511.0
695,575980,0,0.57598,507.0
696,576816,0,0.576816,509.0
697,577648,0,0.577648,510.0
698,578480,0,0.57848,514.0
699,579316,0,0.579316,511.0
700,580148,0,0.580148,511.0
701,580980,0,0.58098,507.0
702,581816,0,0.581816,512.0
703,582648,0,0.582648,514.0
704,583480,0,0.58348,511.0
705,584316,0,0.584316,513.0
706,585148,0,0.585148,509.0
707,585980,0,0.58598,508.0
708,586816,0,0.586816,508.0
709,587648,0,0.587648,508.0
710,588480,0,0.58848,509.0
711,589316,0,0.589316,514.0
712,590148,0,0.590148,513.0
713,590980,0,0.59098,509.0
714,591816,0,0.591816,513.0
715,592648,0,0.592648,507.0
716,593480,0,0.59348,512.0
717,594316,0,0.594316,512.0
718,595148,0,0.595148,505.0
719,595980,0,0.59598,510.0
720,596816,0,0.596816,509.0
721,597648,0,0.597648,504.0
722,598484,0,0.598484,509.0
723,599316,0,0.599316,512.0
724,600148,0,0.600148,512.0
725,600984,0,0.600984,513.0
726,601816,0,0.601816,511.0
727,602648,0,0.602648,508.0
728,603484,0,0.603484,511.0
729,604316,0,0.604316,513.0
730,605148,0,0.605148,510.0
731,605984,0,0.605984,513.0
732,606816,0,0.606816,511.0
733,607648,0,0.607648,510.0
734,608484,0,0.608484,513.0
735,609316,0,0.609316,512.0
736,610148,0,0.610148,509.0
737,610984,0,0.610984,510.0
738,611816,0,0.611816,513.0
739,612648,0,0.612648,510.0
740,613484,0,0.613484,509.0
741,614316,0,0.614316,511.0
742,615148,0,0.615148,509.0
743,615984,0,0.615984,510.0
744,616816,0,0.616816,511.0
745,617648,0,0.617648,510.0
746,618484,0,0.618484,508.0
747,619316,0,0.619316,506.0
748,620148,0,0.620148,508.0
749,620984,0,0.620984,509.0
750,621816,0,0.621816,508.0
751,622648,0,0.622648,512.0
752,623484,0,0.623484,511.0
753,624316,0,0.624316,511.0
754,625148,0,0.625148,510.0
755,625984,0,0.625984,513.0
756,626816,0,0.626816,510.0
757,627652,0,0.627652,513.0
758,628484,0,0.628484,512.0
759,629316,0,0.629316,508.0
760,630152,0,0.630152,511.0
761,630984,0,0.630984,509.0
762,631816,0,0.631816,509.0
763,632652,0,0.632652,509.0
764,633484,0,0.633484,513.0
765,634316,0,0.634316,509.0
766,635152,0,0.635152,512.0
767,635984,0,0.635984,510.0
768,636816,0,0.636816,510.0
769,637652,0,0.637652,513.0
770,638484,0,0.638484,512.0
771,639316,0,0.639316,509.0
772,640152,0,0.640152,512.0
773,640984,0,0.640984,509.0
774,641816,0,0.641816,511.0
775,642652,0,0.642652,511.0
776,643484,0,0.643484,513.0
777,644316,0,0.644316,511.0
778,645152,0,0.645152,512.0
779,645984,0,0.645984,506.0
780,646816,0,0.646816,510.0
781,647652,0,0.647652,512.0
782,648484,0,0.648484,508.0
783,649316,0,0.649316,511.0
784,650152,0,0.650152,510.0
785,650984,0,0.650984,510.0
786,651816,0,0.651816,512.0
787,652652,0,0.652652,510.0
788,653484,0,0.653484,506.0
789,654320,0,0.65432,510.0
790,655152,0,0.655152,512.0
791,655984,0,0.655984,507.0
792,656820,0,0.65682,509.0
793,657652,0,0.657652,511.0
794,658484,0,0.658484,510.0
795,659320,0,0.65932,512.0
796,660152,0,0.660152,511.0
797,660984,0,0.660984,507.0
798,661820,0,0.66182,512.0
799,662652,0,0.662652,509.0
800,663484,0,0.663484,508.0
801,664320,0,0.66432,510.0
802,665152,0,0.665152,509.0
803,665984,0,0.665984,508.0
804,666820,0,0.66682,510.0
805,667656,0,0.667656,514.0
806,668484,0,0.668484,509.0
807,669320,0,0.66932,512.0
808,670152,0,0.670152,511.0
809,670984,0,0.670984,508.0
810,671820,0,0.67182,512.0
811,672652,0,0.672652,505.0
812,673484,0,0.673484,510.0
813,674320,0,0.67432,515.0
814,675152,0,0.675152,510.0
815,675984,0,0.675984,512.0
816,676820,0,0.67682,511.0
817,677652,0,0.677652,507.0
818,678484,0,0.678484,508.0
819,679320,0,0.67932,508.0
820,680152,0,0.680152,502.0
821,680988,0,0.680988,506.0
822,681820,0,0.68182,511.0
823,682652,0,0.682652,508.0
824,683488,0,0.683488,515.0
825,684320,0,0.68432,513.0
826,685152,0,0.685152,511.0
827,685988,0,0.685988,512.0
828,686820,0,0.68682,512.0
829,687652,0,0.687652,509.0
830,688488,0,0.688488,508.0
831,689320,0,0.68932,510.0
832,690152,0,0.690152,507.0
833,690988,0,0.690988,511.0
834,691820,0,0.69182,514.0
835,692652,0,0.692652,514.0
836,693488,0,0.693488,513.0
837,694320,0,0.69432,516.0
838,695152,0,0.695152,511.0
839,695988,0,0.695988,512.0
840,696820,0,0.69682,509.0
841,697652,0,0.697652,505.0
842,698488,0,0.698488,506.0
843,699320,0,0.69932,505.0
844,700152,0,0.700152,511.0
845,700988,0,0.700988,514.0
846,701820,0,0.70182,509.0
847,702652,0,0.702652,515.0
848,703488,0,0.703488,513.0
849,704320,0,0.70432,509.0
850,705152,0,0.705152,511.0
851,705988,0,0.705988,511.0
852,706820,0,0.70682,505.0
853,707656,0,0.707656,509.0
854,708488,0,0.708488,512.0
855,709320,0,0.70932,512.0
856,710156,0,0.710156,512.0
857,710988,0,0.710988,512.0
858,711820,0,0.71182,511.0
859,712656,0,0.712656,509.0
860,713488,0,0.713488,511.0
861,714320,0,0.71432,505.0
862,715156,0,0.715156,510.0
863,715988,0,0.715988,513.0
864,716820,0,0.71682,510.0
865,717656,0,0.717656,512.0
866,718488,0,0.718488,506.0
867,719320,0,0.71932,510.0
868,720156,0,0.720156,511.0
869,720988,0,0.720988,513.0
870,721820,0,0.72182,510.0
871,722656,0,0.722656,508.0
872,723488,0,0.723488,512.0
873,724320,0,0.72432,506.0
874,725156,0,0.725156,509.0
875,725988,0,0.725988,509.0
876,726820,0,0.72682,512.0
877,727656,0,0.727656,512.0
878,728488,0,0.728488,509.0
879,729320,0,0.72932,513.0
880,730156,0,0.730156,512.0
881,730988,0,0.730988,509.0
882,731820,0,0.73182,511.0
883,732656,0,0.732656,509.0
884,733488,0,0.733488,509.0
885,734324,0,0.734324,508.0
886,735156,0,0.735156,512.0
887,735988,0,0.735988,512.0
888,736824,0,0.736824,514.0
889,737656,0,0.737656,511.0
890,738488,0,0.738488,508.0
891,739324,0,0.739324,512.0
892,740156,0,0.740156,511.0
893,740988,0,0.740988,508.0
894,741824,0,0.741824,510.0
895,742656,0,0.742656,509.0
896,743488,0,0.743488,508.0
897,744324,0,0.744324,512.0
898,745156,0,0.745156,512.0
899,745988,0,0.745988,508.0
900,746824,0,0.746824,510.0
901,747656,0,0.747656,509.0
902,748488,0,0.748488,504.0
903,749324,0,0.749324,507.0
904,750156,0,0.750156,514.0
905,750988,0,0.750988,515.0
906,751824,0,0.751824,515.0
907,752656,0,0.752656,509.0
908,753488,0,0.753488,513.0
909,754324,0,0.754324,512.0
910,755156,0,0.755156,506.0
911,755988,0,0.755988,509.0
912,756824,0,0.756824,509.0
913,757656,0,0.757656,503.0
914,758488,0,0.758488,510.0
915,759324,0,0.759324,509.0
916,760156,0,0.760156,506.0
917,760992,0,0.760992,513.0
918,761824,0,0.761824,512.0
919,762656,0,0.762656,508.0
920,763492,0,0.763492,511.0
921,764324,0,0.764324,507.0
922,765156,0,0.765156,508.0
923,765992,0,0.765992,513.0
924,766824,0,0.766824,513.0
925,767656,0,0.767656,510.0
926,768492,0,0.768492,513.0
927,769324,0,0.769324,514.0
928,770156,0,0.770156,511.0
929,770992,0,0.770992,513.0
930,771824,0,0.771824,512.0
931,772656,0,0.772656,510.0
932,773492,0,0.773492,512.0
933,774324,0,0.774324,512.0
934,775156,0,0.775156,510.0
935,775992,0,0.775992,508.0
936,776824,0,0.776824,511.0
937,777656,0,0.777656,510.0
938,778492,0,0.778492,513.0
939,779324,0,0.779324,509.0
940,780156,0,0.780156,504.0
941,780992,0,0.780992,512.0
942,781824,0,0.781824,509.0
943,782656,0,0.782656,512.0
944,783492,0,0.783492,512.0
945,784324,0,0.784324,509.0
946,785156,0,0.785156,512.0
947,785992,0,0.785992,512.0
948,786824,0,0.786824,509.0
949,787660,0,0.78766,509.0
950,788492,0,0.788492,512.0
951,789324,0,0.789324,509.0
952,790160,0,0.79016,508.0
953,790992,0,0.790992,510.0
954,791824,0,0.791824,509.0
955,792660,0,0.79266,513.0
956,793492,0,0.793492,511.0
957,794324,0,0.794324,508.0
958,795160,0,0.79516,509.0
959,795992,0,0.795992,509.0
960,796824,0,0.796824,509.0
961,797660,0,0.79766,512.0
962,798492,0,0.798492,510.0
963,799324,0,0.799324,510.0
964,800160,0,0.80016,510.0
965,800992,0,0.800992,512.0
966,801824,0,0.801824,512.0
967,802660,0,0.80266,512.0
968,803492,0,0.803492,512.0
969,804324,0,0.804324,511.0
970,805160,0,0.80516,513.0
971,805992,0,0.805992,507.0
972,806824,0,0.806824,509.0
973,807660,0,0.80766,511.0
974,808492,0,0.808492,507.0
975,809324,0,0.809324,512.0
976,810160,0,0.81016,509.0
977,810992,0,0.810992,506.0
978,811828,0,0.811828,511.0
979,812660,0,0.81266,510.0
980,813492,0,0.813492,508.0
981,814328,0,0.814328,512.0
982,815160,0,0.81516,512.0
983,815992,0,0.815992,510.0
984,816828,0,0.816828,509.0
985,817660,0,0.81766,512.0
986,818492,0,0.818492,508.0
987,819328,0,0.819328,513.0
988,820160,0,0.82016,511.0
989,820992,0,0.820992,508.0
990,821828,0,0.821828,511.0
991,822660,0,0.82266,511.0
992,823492,0,0.823492,507.0
993,824328,0,0.824328,511.0
994,825160,0,0.82516,512.0
995,825992,0,0.825992,508.0
996,826828,0,0.826828,512.0
997,827660,0,0.82766,512.0
998,828492,0,0.828492,508.0
999,829328,0,0.829328,511.0
1000,830160,0,0.83016,509.0
1001,830992,0,0.830992,507.0
1002,831828,0,0.831828,511.0
1003,832660,0,0.83266,511.0
1004,833492,0,0.833492,512.0
1005,834328,0,0.834328,514.0
1006,835160,0,0.83516,511.0
1007,835992,0,0.835992,512.0
1008,836828,0,0.836828,512.0
1009,837660,0,0.83766,510.0
1010,838496,0,0.838496,509.0
1011,839328,0,0.839328,511.0
1012,840160,0,0.84016,508.0
1013,840996,0,0.840996,510.0
1014,841828,0,0.841828,510.0
1015,842660,0,0.84266,510.0
1016,843496,0,0.843496,512.0
1017,844328,0,0.844328,513.0
1018,845160,0,0.84516,512.0
1019,845996,0,0.845996,512.0
1020,846828,0,0.846828,510.0
1021,847660,0,0.84766,507.0
1022,848496,0,0.848496,512.0
1023,849328,0,0.849328,511.0
1024,850160,0,0.85016,509.0
1025,850996,0,0.850996,511.0
1026,851828,0,0.851828,512.0
1027,852660,0,0.85266,509.0
1028,853496,0,0.853496,512.0
1029,854328,0,0.854328,511.0
1030,855160,0,0.85516,509.0
1031,855996,0,0.855996,508.0
1032,856828,0,0.856828,508.0
1033,857660,0,0.85766,509.0
1034,858496,0,0.858496,512.0
1035,859328,0,0.859328,510.0
1036,860168,0,0.860168,513.0
1037,860996,0,0.860996,510.0
1038,861828,0,0.861828,508.0
1039,862660,0,0.86266,510.0
1040,863496,0,0.863496,510.0
1041,864328,0,0.864328,504.0
1042,865160,0,0.86516,510.0
1043,865996,0,0.865996,510.0
1044,866828,0,0.866828,509.0
1045,867664,0,0.867664,512.0
1046,868496,0,0.868496,510.0
1047,869328,0,0.869328,512.0
1048,870164,0,0.870164,513.0
1049,870996,0,0.870996,510.0
1050,871828,0,0.871828,505.0
1051,872664,0,0.872664,509.0
1052,873496,0,0.873496,511.0
1053,874328,0,0.874328,511.0
1054,875164,0,0.875164,512.0
1055,875996,0,0.875996,513.0
1056,876828,0,0.876828,508.0
1057,877664,0,0.877664,511.0
1058,878496,0,0.878496,511.0
1059,879328,0,0.879328,507.0
1060,880164,0,0.880164,510.0
1061,880996,0,0.880996,511.0
1062,881828,0,0.881828,506.0
1063,882664,0,0.882664,513.0
1064,883496,0,0.883496,512.0
1065,884328,0,0.884328,510.0
1066,885164,0,0.885164,514.0
1067,885996,0,0.885996,508.0
1068,886828,0,0.886828,510.0
1069,887664,0,0.887664,508.0
1070,888496,0,0.888496,508.0
1071,889328,0,0.889328,511.0
1072,890164,0,0.890164,512.0
1073,890996,0,0.890996,507.0
1074,891828,0,0.891828,512.0
1075,892664,0,0.892664,511.0
1076,893496,0,0.893496,509.0
1077,894332,0,0.894332,511.0
1078,895164,0,0.895164,510.0
1079,895996,0,0.895996,510.0
1080,896832,0,0.896832,511.0
1081,897664,0,0.897664,512.0
1082,898496,0,0.898496,508.0
1083,899332,0,0.899332,509.0
1084,900164,0,0.900164,508.0
1085,900996,0,0.900996,509.0
1086,901832,0,0.901832,511.0
1087,902664,0,0.902664,511.0
1088,903496,0,0.903496,510.0
1089,904332,0,0.904332,511.0
1090,905164,0,0.905164,511.0
1091,905996,0,0.905996,509.0
1092,906832,0,0.906832,511.0
1093,907664,0,0.907664,511.0
1094,908496,0,0.908496,509.0
1095,909332,0,0.909332,514.0
1096,910164,0,0.910164,514.0
1097,910996,0,0.910996,511.0
1098,911832,0,0.911832,511.0
1099,912664,0,0.912664,506.0
1100,913496,0,0.913496,510.0
1101,914332,0,0.914332,510.0
1102,915164,0,0.915164,504.0
1103,915996,0,0.915996,509.0
1104,916832,0,0.916832,509.0
1105,917664,0,0.917664,507.0
1106,918500,0,0.9185,510.0
1107,919332,0,0.919332,510.0
1108,920164,0,0.920164,506.0
1109,921000,0,0.921,513.0
1110,921832,0,0.921832,513.0
1111,922664,0,0.922664,510.0
1112,923500,0,0.9235,512.0
1113,924332,0,0.924332,511.0
1114,925164,0,0.925164,508.0
1115,926000,0,0.926,511.0
1116,926832,0,0.926832,510.0
1117,927664,0,0.927664,510.0
1118,928500,0,0.9285,511.0
1119,929332,0,0.929332,512.0
1120,930164,0,0.930164,510.0
1121,931000,0,0.931,510.0
1122,931832,0,0.931832,512.0
1123,932664,0,0.932664,506.0
1124,933500,0,0.9335,509.0
1125,934332,0,0.934332,510.0
1126,935164,0,0.935164,509.0
1127,936000,0,0.936,513.0
1128,936832,0,0.936832,510.0
1129,937664,0,0.937664,509.0
1130,938500,0,0.9385,511.0
1131,939332,0,0.939332,508.0
1132,940164,0,0.940164,511.0
1133,941000,0,0.941,513.0
1134,941832,0,0.941832,507.0
1135,942664,0,0.942664,513.0
1136,943500,0,0.9435,511.0
1137,944332,0,0.944332,510.0
1138,945168,0,0.945168,510.0
1139,946000,0,0.946,508.0
1140,946832,0,0.946832,509.0
1141,947668,0,0.947668,509.0
1142,948500,0,0.9485,509.0
1143,949332,0,0.949332,508.0
1144,950168,0,0.950168,513.0
1145,951000,0,0.951,512.0
1146,951832,0,0.951832,507.0
1147,952668,0,0.952668,510.0
1148,953500,0,0.9535,509.0
1149,954332,0,0.954332,511.0
1150,955168,0,0.955168,512.0
1151,956000,0,0.956,511.0
1152,956832,0,0.956832,508.0
1153,957668,0,0.957668,511.0
1154,958500,0,0.9585,511.0
1155,959332,0,0.959332,511.0
1156,960168,0,0.960168,514.0
1157,961000,0,0.961,512.0
1158,961832,0,0.961832,509.0
1159,962668,0,0.962668,506.0
1160,963500,0,0.9635,506.0
1161,964332,0,0.964332,506.0
1162,965168,0,0.965168,510.0
1163,966000,0,0.966,509.0
1164,966832,0,0.966832,511.0
1165,967668,0,0.967668,513.0
1166,968500,0,0.9685,509.0
1167,969332,0,0.969332,515.0
1168,970168,0,0.970168,514.0
1169,971000,0,0.971,505.0
1170,971832,0,0.971832,508.0
1171,972668,0,0.972668,511.0
1172,973500,0,0.9735,507.0
1173,974336,0,0.974336,510.0
1174,975168,0,0.975168,513.0
1175,976000,0,0.976,512.0
1176,976836,0,0.976836,513.0
1177,977668,0,0.977668,513.0
1178,978500,0,0.9785,505.0
1179,979336,0,0.979336,509.0
1180,980168,0,0.980168,509.0
1181,981000,0,0.981,508.0
1182,981836,0,0.981836,511.0
1183,982668,0,0.982668,513.0
1184,983500,0,0.9835,511.0
1185,984336,0,0.984336,513.0
1186,985168,0,0.985168,511.0
1187,986000,0,0.986,510.0
1188,986836,0,0.986836,512.0
1189,987668,0,0.987668,514.0
1190,988500,0,0.9885,510.0
1191,989336,0,0.989336,508.0
1192,990168,0,0.990168,508.0
1193,991000,0,0.991,510.0
1194,991836,0,0.991836,512.0
1195,992668,0,0.992668,510.0
1196,993500,0,0.9935,508.0
1197,994336,0,0.994336,511.0
1198,995168,0,0.995168,508.0
1199,996000,0,0.996,511.0
1200,996836,0,0.996836,511.0
1201,997668,0,0.997668,509.0
1202,998504,0,0.998504,513.0
1203,999336,0,0.999336,510.0
1204,1000168,0,1.000168,511.0
1205,1001004,0,1.001004,511.0
1206,1001836,0,1.001836,510.0
1207,1002668,0,1.002668,508.0
1208,1003504,0,1.003504,514.0
1209,1004336,0,1.004336,513.0
1210,1005168,0,1.005168,510.0
1211,1006004,0,1.006004,510.0
1212,1006836,0,1.006836,508.0
1213,1007668,0,1.007668,509.0
1214,1008504,0,1.008504,513.0
1215,1009336,0,1.009336,509.0
1216,1010168,0,1.010168,510.0
1217,1011004,0,1.011004,510.0
1218,1011836,0,1.011836,509.0
1219,1012668,0,1.012668,508.0
1220,1013504,0,1.013504,510.0
1221,1014336,0,1.014336,512.0
1222,1015168,0,1.015168,511.0
1223,1016004,0,1.016004,507.0
1224,1016840,0,1.01684,511.0
1225,1017668,0,1.017668,513.0
1226,1018504,0,1.018504,512.0
1227,1019336,0,1.019336,513.0
1228,1020168,0,1.020168,505.0
1229,1021004,0,1.021004,509.0
1230,1021836,0,1.021836,512.0
1231,1022668,0,1.022668,507.0
1232,1023504,0,1.023504,509.0
1233,1024336,0,1.024336,509.0
1234,1025168,0,1.025168,506.0
1235,1026004,0,1.026004,513.0
1236,1026836,0,1.026836,511.0
1237,1027672,0,1.027672,512.0
1238,1028504,0,1.028504,515.0
1239,1029336,0,1.029336,510.0
1240,1030172,0,1.030172,511.0
1241,1031004,0,1.031004,512.0
1242,1031836,0,1.031836,511.0
1243,1032672,0,1.032672,510.0
1244,1033504,0,1.033504,505.0
1245,1034336,0,1.034336,513.0
1246,1035172,0,1.035172,509.0
1247,1036004,0,1.036004,507.0
1248,1036836,0,1.036836,511.0
1249,1037672,0,1.037672,513.0
1250,1038504,0,1.038504,508.0
1251,1039336,0,1.039336,509.0
1252,1040172,0,1.040172,506.0
1253,1041004,0,1.041004,511.0
1254,1041836,0,1.041836,510.0
1255,1042672,0,1.042672,505.0
1256,1043504,0,1.043504,512.0
1257,1044336,0,1.044336,516.0
1258,1045172,0,1.045172,511.0
1259,1046004,0,1.046004,515.0
1260,1046836,0,1.046836,508.0
1261,1047672,0,1.047672,511.0
1262,1048504,0,1.048504,511.0
1263,1049336,0,1.049336,510.0
1264,1050172,0,1.050172,512.0
1265,1051004,0,1.051004,510.0
1266,1051840,0,1.05184,507.0
1267,1052672,0,1.052672,514.0
1268,1053504,0,1.053504,507.0
1269,1054340,0,1.05434,511.0
1270,1055172,0,1.055172,511.0
1271,1056004,0,1.056004,508.0
1272,1056840,0,1.05684,509.0
1273,1057672,0,1.057672,513.0
1274,1058504,0,1.058504,508.0
1275,1059340,0,1.05934,511.0
1276,1060172,0,1.060172,506.0
1277,1061004,0,1.061004,510.0
1278,1061840,0,1.06184,510.0
1279,1062672,0,1.062672,508.0
1280,1063504,0,1.063504,509.0
1281,1064340,0,1.06434,512.0
1282,1065172,0,1.065172,509.0
1283,1066004,0,1.066004,510.0
1284,1066840,0,1.06684,507.0
1285,1067672,0,1.067672,511.0
1286,1068504,0,1.068504,512.0
1287,1069340,0,1.06934,505.0
1288,1070172,0,1.070172,513.0
1289,1071004,0,1.071004,510.0
1290,1071840,0,1.07184,506.0
1291,1072672,0,1.072672,512.0
1292,1073504,0,1.073504,508.0
1293,1074340,0,1.07434,512.0
1294,1075172,0,1.075172,513.0
1295,1076004,0,1.076004,504.0
1296,1076840,0,1.07684,508.0
1297,1077672,0,1.077672,511.0
1298,1078508,0,1.078508,511.0
1299,1079340,0,1.07934,512.0
1300,1080172,0,1.080172,509.0
1301,1081008,0,1.081008,509.0
1302,1081840,0,1.08184,509.0
1303,1082672,0,1.082672,506.0
1304,1083508,0,1.083508,511.0
1305,1084340,0,1.08434,510.0
1306,1085172,0,1.085172,509.0
1307,1086008,0,1.086008,515.0
1308,1086840,0,1.08684,510.0
1309,1087672,0,1.087672,513.0
1310,1088508,0,1.088508,513.0
1311,1089340,0,1.08934,510.0
1312,1090172,0,1.090172,514.0
1313,1091008,0,1.091008,510.0
1314,1091840,0,1.09184,510.0
1315,1092672,0,1.092672,509.0
1316,1093508,0,1.093508,508.0
1317,1094340,0,1.09434,508.0
1318,1095172,0,1.095172,509.0
1319,1096008,0,1.096008,508.0
1320,1096840,0,1.09684,510.0
1321,1097672,0,1.097672,511.0
1322,1098508,0,1.098508,510.0
1323,1099340,0,1.09934,509.0
1324,1100172,0,1.100172,505.0
1325,1101008,0,1.101008,514.0
1326,1101840,0,1.10184,511.0
1327,1102672,0,1.102672,511.0
1328,1103508,0,1.103508,513.0
1329,1104340,0,1.10434,514.0
1330,1105176,0,1.105176,511.0
1331,1106008,0,1.106008,513.0
1332,1106840,0,1.10684,506.0
1333,1107676,0,1.107676,509.0
1334,1108508,0,1.108508,510.0
1335,1109340,0,1.10934,508.0
1336,1110176,0,1.110176,511.0
1337,1111008,0,1.111008,512.0
1338,1111840,0,1.11184,507.0
1339,1112676,0,1.112676,508.0
1340,1113508,0,1.113508,504.0
1341,1114340,0,1.11434,510.0
1342,1115176,0,1.115176,510.0
1343,1116008,0,1.116008,511.0
1344,1116840,0,1.11684,514.0
1345,1117676,0,1.117676,510.0
1346,1118508,0,1.118508,512.0
1347,1119340,0,1.11934,514.0
1348,1120176,0,1.120176,510.0
1349,1121008,0,1.121008,513.0
1350,1121840,0,1.12184,507.0
1351,1122676,0,1.122676,508.0
1352,1123508,0,1.123508,510.0
1353,1124340,0,1.12434,513.0
1354,1125176,0,1.125176,511.0
1355,1126008,0,1.126008,514.0
1356,1126840,0,1.12684,507.0
1357,1127676,0,1.127676,513.0
1358,1128508,0,1.128508,509.0
1359,1129340,0,1.12934,507.0
1360,1130176,0,1.130176,509.0
1361,1131008,0,1.131008,509.0
1362,1131840,0,1.13184,511.0
1363,1132676,0,1.132676,512.0
1364,1133508,0,1.133508,511.0
1365,1134344,0,1.134344,513.0
1366,1135176,0,1.135176,512.0
1367,1136008,0,1.136008,509.0
1368,1136844,0,1.136844,509.0
1369,1137676,0,1.137676,512.0
1370,1138508,0,1.138508,505.0
1371,1139344,0,1.139344,509.0
1372,1140176,0,1.140176,507.0
1373,1141008,0,1.141008,512.0
1374,1141844,0,1.141844,512.0
1375,1142676,0,1.142676,509.0
1376,1143508,0,1.143508,510.0
1377,1144344,0,1.144344,513.0
1378,1145176,0,1.145176,508.0
1379,1146008,0,1.146008,507.0
1380,1146844,0,1.146844,506.0
1381,1147676,0,1.147676,512.0
1382,1148508,0,1.148508,510.0
1383,1149344,0,1.149344,511.0
1384,1150176,0,1.150176,512.0
1385,1151008,0,1.151008,514.0
1386,1151844,0,1.151844,509.0
1387,1152676,0,1.152676,509.0
1388,1153508,0,1.153508,510.0
1389,1154344,0,1.154344,511.0
1390,1155176,0,1.155176,512.0
1391,1156008,0,1.156008,510.0
1392,1156844,0,1.156844,510.0
1393,1157676,0,1.157676,511.0
1394,1158508,0,1.158508,508.0
1395,1159344,0,1.159344,510.0
1396,1160176,0,1.160176,506.0
1397,1161012,0,1.161012,511.0
1398,1161844,0,1.161844,510.0
1399,1162676,0,1.162676,509.0
1400,1163512,0,1.163512,509.0
1401,1164344,0,1.164344,508.0
1402,1165176,0,1.165176,509.0
1403,1166012,0,1.166012,514.0
1404,1166844,0,1.166844,511.0
1405,1167676,0,1.167676,512.0
1406,1168512,0,1.168512,513.0
1407,1169344,0,1.169344,507.0
1408,1170176,0,1.170176,512.0
1409,1171012,0,1.171012,514.0
1410,1171844,0,1.171844,510.0
1411,1172676,0,1.172676,511.0
1412,1173512,0,1.173512,509.0
1413,1174344,0,1.174344,504.0
1414,1175176,0,1.175176,512.0
1415,1176012,0,1.176012,509.0
1416,1176844,0,1.176844,512.0
1417,1177676,0,1.177676,513.0
1418,1178512,0,1.178512,510.0
1419,1179344,0,1.179344,508.0
1420,1180176,0,1.180176,508.0
1421,1181012,0,1.181012,507.0
1422,1181844,0,1.181844,512.0
1423,1182676,0,1.182676,504.0
1424,1183512,0,1.183512,511.0
1425,1184344,0,1.184344,512.0
1426,1185180,0,1.18518,511.0
1427,1186012,0,1.186012,512.0
1428,1186844,0,1.186844,506.0
1429,1187680,0,1.18768,510.0
1430,1188512,0,1.188512,512.0
1431,1189344,0,1.189344,508.0
1432,1190180,0,1.19018,512.0
1433,1191012,0,1.191012,513.0
1434,1191844,0,1.191844,509.0
1435,1192680,0,1.19268,512.0
1436,1193512,0,1.193512,507.0
1437,1194344,0,1.194344,512.0
1438,1195180,0,1.19518,512.0
1439,1196012,0,1.196012,506.0
1440,1196844,0,1.196844,511.0
1441,1197680,0,1.19768,511.0
1442,1198512,0,1.198512,507.0
1443,1199344,0,1.199344,515.0
1444,1200180,0,1.20018,503.0
1445,1201012,0,1.201012,512.0
1446,1201844,0,1.201844,514.0
1447,1202680,0,1.20268,510.0
1448,1203512,0,1.203512,514.0
1449,1204344,0,1.204344,509.0
1450,1205180,0,1.20518,507.0
1451,1206012,0,1.206012,509.0
1452,1206844,0,1.206844,510.0
1453,1207680,0,1.20768,512.0
1454,1208512,0,1.208512,509.0
1455,1209352,0,1.209352,505.0
1456,1210180,0,1.21018,509.0
1457,1211012,0,1.211012,514.0
1458,1211844,0,1.211844,511.0
1459,1212680,0,1.21268,513.0
1460,1213512,0,1.213512,506.0
1461,1214348,0,1.214348,509.0
1462,1215180,0,1.21518,508.0
1463,1216012,0,1.216012,510.0
1464,1216848,0,1.216848,515.0
1465,1217680,0,1.21768,512.0
1466,1218512,0,1.218512,510.0
1467,1219348,0,1.219348,513.0
1468,1220180,0,1.22018,503.0
1469,1221012,0,1.221012,510.0
1470,1221848,0,1.221848,510.0
1471,1222680,0,1.22268,507.0
1472,1223512,0,1.223512,510.0
1473,1224348,0,1.224348,510.0
1474,1225180,0,1.22518,507.0
1475,1226012,0,1.226012,513.0
1476,1226848,0,1.226848,508.0
1477,1227680,0,1.22768,513.0
1478,1228512,0,1.228512,514.0
1479,1229348,0,1.229348,507.0
1480,1230180,0,1.23018,509.0
1481,1231012,0,1.231012,510.0
1482,1231848,0,1.231848,509.0
1483,1232680,0,1.23268,513.0
1484,1233512,0,1.233512,509.0
1485,1234348,0,1.234348,513.0
1486,1235180,0,1.23518,511.0
1487,1236012,0,1.236012,508.0
1488,1236848,0,1.236848,514.0
1489,1237680,0,1.23768,510.0
1490,1238512,0,1.238512,511.0
1491,1239348,0,1.239348,507.0
1492,1240180,0,1.24018,507.0
1493,1241016,0,1.241016,512.0
1494,1241848,0,1.241848,512.0
1495,1242680,0,1.24268,505.0
1496,1243516,0,1.243516,512.0
1497,1244348,0,1.244348,514.0
1498,1245180,0,1.24518,511.0
1499,1246016,0,1.246016,512.0
1500,1246848,0,1.246848,509.0
1501,1247680,0,1.24768,512.0
1502,1248516,0,1.248516,511.0
1503,1249348,0,1.249348,507.0
1504,1250180,0,1.25018,511.0
1505,1251016,0,1.251016,506.0
1506,1251848,0,1.251848,510.0
1507,1252680,0,1.25268,511.0
1508,1253516,0,1.253516,506.0
1509,1254348,0,1.254348,512.0
1510,1255180,0,1.25518,506.0
1511,1256016,0,1.256016,510.0
1512,1256848,0,1.256848,514.0
1513,1257680,0,1.25768,512.0
1514,1258516,0,1.258516,513.0
1515,1259348,0,1.259348,513.0
1516,1260180,0,1.26018,508.0
1517,1261016,0,1.261016,509.0
1518,1261848,0,1.261848,512.0
1519,1262680,0,1.26268,507.0
1520,1263516,0,1.263516,511.0
1521,1264348,0,1.264348,511.0
1522,1265184,0,1.265184,506.0
1523,1266016,0,1.266016,509.0
1524,1266848,0,1.266848,507.0
1525,1267684,0,1.267684,511.0
1526,1268516,0,1.268516,511.0
1527,1269348,0,1.269348,507.0
1528,1270184,0,1.270184,506.0
1529,1271016,0,1.271016,511.0
1530,1271848,0,1.271848,510.0
1531,1272684,0,1.272684,510.0
1532,1273516,0,1.273516,506.0
1533,1274348,0,1.274348,513.0
1534,1275184,0,1.275184,515.0
1535,1276016,0,1.276016,511.0
1536,1276848,0,1.276848,512.0
1537,1277684,0,1.277684,509.0
1538,1278516,0,1.278516,508.0
1539,1279348,0,1.279348,511.0
1540,1280184,0,1.280184,508.0
1541,1281016,0,1.281016,512.0
1542,1281848,0,1.281848,511.0
1543,1282684,0,1.282684,509.0
1544,1283516,0,1.283516,510.0
1545,1284348,0,1.284348,510.0
1546,1285184,0,1.285184,504.0
1547,1286016,0,1.286016,509.0
1548,1286848,0,1.286848,508.0
1549,1287684,0,1.287684,513.0
1550,1288516,0,1.288516,510.0
1551,1289348,0,1.289348,510.0
1552,1290184,0,1.290184,512.0
1553,1291016,0,1.291016,515.0
1554,1291848,0,1.291848,511.0
1555,1292684,0,1.292684,511.0
1556,1293516,0,1.293516,506.0
1557,1294352,0,1.294352,510.0
1558,1295184,0,1.295184,511.0
1559,1296016,0,1.296016,508.0
1560,1296852,0,1.296852,510.0
1561,1297684,0,1.297684,512.0
1562,1298516,0,1.298516,510.0
1563,1299352,0,1.299352,511.0
1564,1300184,0,1.300184,504.0
1565,1301016,0,1.301016,504.0
1566,1301852,0,1.301852,512.0
1567,1302684,0,1.302684,511.0
1568,1303516,0,1.303516,513.0
1569,1304352,0,1.304352,514.0
1570,1305184,0,1.305184,510.0
1571,1306016,0,1.306016,512.0
1572,1306852,0,1.306852,507.0
1573,1307684,0,1.307684,510.0
1574,1308516,0,1.308516,509.0
1575,1309352,0,1.309352,509.0
1576,1310184,0,1.310184,513.0
1577,1311016,0,1.311016,512.0
1578,1311852,0,1.311852,509.0
1579,1312684,0,1.312684,511.0
1580,1313516,0,1.313516,508.0
1581,1314352,0,1.314352,509.0
1582,1315184,0,1.315184,511.0
1583,1316016,0,1.316016,504.0
1584,1316852,0,1.316852,508.0
1585,1317684,0,1.317684,511.0
1586,1318516,0,1.318516,512.0
1587,1319352,0,1.319352,513.0
1588,1320184,0,1.320184,508.0
1589,1321020,0,1.32102,510.0
1590,1321852,0,1.321852,512.0
1591,1322684,0,1.322684,509.0
1592,1323520,0,1.32352,510.0
1593,1324352,0,1.324352,511.0
1594,1325184,0,1.325184,511.0
1595,1326020,0,1.32602,511.0
1596,1326852,0,1.326852,509.0
1597,1327684,0,1.327684,512.0
1598,1328520,0,1.32852,512.0
1599,1329352,0,1.329352,510.0
1600,1330184,0,1.330184,510.0
1601,1331020,0,1.33102,506.0
1602,1331852,0,1.331852,503.0
1603,1332684,0,1.332684,510.0
1604,1333520,0,1.33352,508.0
1605,1334352,0,1.334352,512.0
1606,1335184,0,1.335184,512.0
1607,1336020,0,1.33602,510.0
1608,1336852,0,1.336852,513.0
1609,1337684,0,1.337684,512.0
1610,1338520,0,1.33852,509.0
1611,1339352,0,1.339352,511.0
1612,1340184,0,1.340184,508.0
1613,1341020,0,1.34102,513.0
1614,1341852,0,1.341852,511.0
1615,1342684,0,1.342684,507.0
1616,1343520,0,1.34352,511.0
1617,1344352,0,1.344352,512.0
1618,1345188,0,1.345188,509.0
1619,1346020,0,1.34602,512.0
1620,1346852,0,1.346852,503.0
1621,1347688,0,1.347688,510.0
1622,1348520,0,1.34852,511.0
1623,1349352,0,1.349352,507.0
1624,1350188,0,1.350188,512.0
1625,1351020,0,1.35102,513.0
1626,1351852,0,1.351852,513.0
1627,1352688,0,1.352688,513.0
1628,1353520,0,1.35352,507.0
1629,1354352,0,1.354352,511.0
1630,1355188,0,1.355188,508.0
1631,1356020,0,1.35602,510.0
1632,1356852,0,1.356852,510.0
1633,1357688,0,1.357688,510.0
1634,1358520,0,1.35852,508.0
1635,1359352,0,1.359352,509.0
1636,1360188,0,1.360188,507.0
1637,1361020,0,1.36102,510.0
1638,1361852,0,1.361852,505.0
1639,1362688,0,1.362688,508.0
1640,1363520,0,1.36352,512.0
1641,1364352,0,1.364352,512.0
1642,1365188,0,1.365188,510.0
1643,1366024,0,1.366024,511.0
1644,1366852,0,1.366852,505.0
1645,1367688,0,1.367688,511.0
1646,1368520,0,1.36852,510.0
1647,1369352,0,1.369352,513.0
1648,1370188,0,1.370188,514.0
1649,1371020,0,1.37102,514.0
1650,1371856,0,1.371856,509.0
1651,1372688,0,1.372688,511.0
1652,1373520,0,1.37352,507.0
1653,1374356,0,1.374356,512.0
1654,1375188,0,1.375188,510.0
1655,1376020,0,1.37602,508.0
1656,1376856,0,1.376856,508.0
1657,1377688,0,1.377688,505.0
1658,1378520,0,1.37852,508.0
1659,1379356,0,1.379356,508.0
1660,1380188,0,1.380188,508.0
1661,1381020,0,1.38102,513.0
1662,1381856,0,1.381856,512.0
1663,1382688,0,1.382688,510.0
1664,1383520,0,1.38352,512.0
1665,1384356,0,1.384356,512.0
1666,1385188,0,1.385188,510.0
1667,1386020,0,1.38602,513.0
1668,1386856,0,1.386856,510.0
1669,1387688,0,1.387688,513.0
1670,1388520,0,1.38852,512.0
1671,1389356,0,1.389356,509.0
1672,1390188,0,1.390188,512.0
1673,1391020,0,1.39102,512.0
1674,1391856,0,1.391856,507.0
1675,1392688,0,1.392688,505.0
1676,1393520,0,1.39352,507.0
1677,1394356,0,1.394356,514.0
1678,1395188,0,1.395188,511.0
1679,1396020,0,1.39602,509.0
1680,1396856,0,1.396856,513.0
1681,1397688,0,1.397688,511.0
1682,1398520,0,1.39852,511.0
1683,1399356,0,1.399356,512.0
1684,1400188,0,1.400188,509.0
1685,1401024,0,1.401024,507.0
1686,1401856,0,1.401856,512.0
1687,1402688,0,1.402688,507.0
1688,1403524,0,1.403524,514.0
1689,1404356,0,1.404356,512.0
1690,1405188,0,1.405188,509.0
1691,1406024,0,1.406024,511.0
1692,1406856,0,1.406856,507.0
1693,1407688,0,1.407688,506.0
1694,1408524,0,1.408524,505.0
1695,1409356,0,1.409356,508.0
1696,1410188,0,1.410188,512.0
1697,1411024,0,1.411024,514.0
1698,1411856,0,1.411856,510.0
1699,1412688,0,1.412688,514.0
1700,1413524,0,1.413524,508.0
1701,1414356,0,1.414356,510.0
1702,1415188,0,1.415188,510.0
1703,1416024,0,1.416024,506.0
1704,1416856,0,1.416856,512.0
1705,1417688,0,1.417688,512.0
1706,1418524,0,1.418524,509.0
1707,1419356,0,1.419356,511.0
1708,1420188,0,1.420188,509.0
1709,1421024,0,1.421024,510.0
1710,1421856,0,1.421856,509.0
1711,1422688,0,1.422688,507.0
1712,1423524,0,1.423524,507.0
1713,1424356,0,1.424356,512.0
1714,1425188,0,1.425188,511.0
1715,1426024,0,1.426024,513.0
1716,1426856,0,1.426856,509.0
1717,1427692,0,1.427692,511.0
1718,1428524,0,1.428524,511.0
1719,1429356,0,1.429356,508.0
1720,1430192,0,1.430192,512.0
1721,1431024,0,1.431024,512.0
1722,1431856,0,1.431856,509.0
1723,1432692,0,1.432692,512.0
1724,1433524,0,1.433524,508.0
1725,1434356,0,1.434356,512.0
1726,1435192,0,1.435192,512.0
1727,1436024,0,1.436024,508.0
1728,1436856,0,1.436856,507.0
1729,1437692,0,1.437692,510.0
1730,1438524,0,1.438524,506.0
1731,1439356,0,1.439356,511.0
1732,1440192,0,1.440192,509.0
1733,1441024,0,1.441024,515.0
1734,1441856,0,1.441856,512.0
1735,1442692,0,1.442692,509.0
1736,1443524,0,1.443524,514.0
1737,1444356,0,1.444356,513.0
1738,1445192,0,1.445192,507.0
1739,1446024,0,1.446024,511.0
1740,1446856,0,1.446856,507.0
1741,1447692,0,1.447692,513.0
1742,1448524,0,1.448524,512.0
1743,1449356,0,1.449356,508.0
1744,1450192,0,1.450192,510.0
1745,1451024,0,1.451024,512.0
1746,1451856,0,1.451856,508.0
1747,1452692,0,1.452692,508.0
1748,1453524,0,1.453524,505.0
1749,1454360,0,1.45436,507.0
1750,1455192,0,1.455192,507.0
1751,1456024,0,1.456024,508.0
1752,1456860,0,1.45686,512.0
1753,1457692,0,1.457692,512.0
1754,1458524,0,1.458524,510.0
1755,1459360,0,1.45936,512.0
1756,1460192,0,1.460192,507.0
1757,1461024,0,1.461024,511.0
1758,1461860,0,1.46186,512.0
1759,1462692,0,1.462692,508.0
1760,1463524,0,1.463524,513.0
1761,1464360,0,1.46436,514.0
1762,1465192,0,1.465192,510.0
1763,1466024,0,1.466024,512.0
1764,1466860,0,1.46686,508.0
1765,1467692,0,1.467692,512.0
1766,1468524,0,1.468524,511.0
1767,1469360,0,1.46936,508.0
1768,1470192,0,1.470192,511.0
1769,1471024,0,1.471024,514.0
1770,1471860,0,1.47186,510.0
1771,1472692,0,1.472692,513.0
1772,1473524,0,1.473524,506.0
1773,1474360,0,1.47436,511.0
1774,1475192,0,1.475192,510.0
1775,1476024,0,1.476024,507.0
1776,1476860,0,1.47686,512.0
1777,1477692,0,1.477692,512.0
1778,1478528,0,1.478528,508.0
1779,1479360,0,1.47936,510.0
1780,1480192,0,1.480192,509.0
1781,1481028,0,1.481028,511.0
1782,1481860,0,1.48186,513.0
1783,1482692,0,1.482692,508.0
1784,1483528,0,1.483528,509.0
1785,1484360,0,1.48436,510.0
1786,1485192,0,1.485192,504.0
1787,1486028,0,1.486028,509.0
1788,1486860,0,1.48686,509.0
1789,1487692,0,1.487692,512.0
1790,1488528,0,1.488528,511.0
1791,1489360,0,1.48936,507.0
1792,1490192,0,1.490192,511.0
1793,1491028,0,1.491028,509.0
1794,1491860,0,1.49186,508.0
1795,1492692,0,1.492692,508.0
1796,1493528,0,1.493528,508.0
1797,1494360,0,1.49436,511.0
1798,1495192,0,1.495192,513.0
1799,1496028,0,1.496028,511.0
1800,1496860,0,1.49686,510.0
1801,1497692,0,1.497692,509.0
1802,1498528,0,1.498528,509.0
1803,1499360,0,1.49936,512.0
1804,1500192,0,1.500192,503.0
1805,1501028,0,1.501028,504.0
1806,1501860,0,1.50186,513.0
1807,1502692,0,1.502692,510.0
1808,1503528,0,1.503528,514.0
1809,1504360,0,1.50436,512.0
1810,1505196,0,1.505196,511.0
1811,1506028,0,1.506028,511.0
1812,1506860,0,1.50686,503.0
1813,1507696,0,1.507696,509.0
1814,1508528,0,1.508528,512.0
1815,1509360,0,1.50936,509.0
1816,1510196,0,1.510196,512.0
1817,1511028,0,1.511028,512.0
1818,1511860,0,1.51186,507.0
1819,1512696,0,1.512696,511.0
1820,1513528,0,1.513528,507.0
1821,1514360,0,1.51436,510.0
1822,1515196,0,1.515196,509.0
1823,1516028,0,1.516028,509.0
1824,1516860,0,1.51686,515.0
1825,1517696,0,1.517696,513.0
1826,1518528,0,1.518528,508.0
1827,1519360,0,1.51936,511.0
1828,1520196,0,1.520196,508.0
1829,1521028,0,1.521028,513.0
1830,1521860,0,1.52186,510.0
1831,1522696,0,1.522696,504.0
1832,1523528,0,1.523528,509.0
1833,1524360,0,1.52436,510.0
1834,1525196,0,1.525196,508.0
1835,1526028,0,1.526028,512.0
1836,1526860,0,1.52686,507.0
1837,1527696,0,1.527696,514.0
1838,1528528,0,1.528528,514.0
1839,1529360,0,1.52936,510.0
1840,1530196,0,1.530196,508.0
1841,1531028,0,1.531028,506.0
1842,1531860,0,1.53186,507.0
1843,1532696,0,1.532696,511.0
1844,1533528,0,1.533528,510.0
1845,1534364,0,1.534364,509.0
1846,1535196,0,1.535196,508.0
1847,1536028,0,1.536028,508.0
1848,1536864,0,1.536864,514.0
1849,1537696,0,1.537696,513.0
1850,1538528,0,1.538528,510.0
1851,1539364,0,1.539364,511.0
1852,1540196,0,1.540196,508.0
1853,1541028,0,1.541028,512.0
1854,1541864,0,1.541864,510.0
1855,1542696,0,1.542696,510.0
1856,1543528,0,1.543528,514.0
1857,1544364,0,1.544364,513.0
1858,1545196,0,1.545196,509.0
1859,1546028,0,1.546028,512.0
1860,1546864,0,1.546864,507.0
1861,1547696,0,1.547696,511.0
1862,1548528,0,1.548528,512.0
1863,1549364,0,1.549364,510.0
1864,1550196,0,1.550196,511.0
1865,1551028,0,1.551028,514.0
1866,1551864,0,1.551864,508.0
1867,1552696,0,1.552696,508.0
1868,1553528,0,1.553528,507.0
1869,1554364,0,1.554364,510.0
1870,1555196,0,1.555196,514.0
1871,1556028,0,1.556028,509.0
1872,1556864,0,1.556864,510.0
1873,1557696,0,1.557696,507.0
1874,1558536,0,1.558536,505.0
1875,1559364,0,1.559364,512.0
1876,1560196,0,1.560196,511.0
1877,1561032,0,1.561032,510.0
1878,1561864,0,1.561864,513.0
1879,1562696,0,1.562696,511.0
1880,1563532,0,1.563532,514.0
1881,1564364,0,1.564364,513.0
1882,1565196,0,1.565196,511.0
1883,1566032,0,1.566032,510.0
1884,1566864,0,1.566864,507.0
1885,1567696,0,1.567696,510.0
1886,1568532,0,1.568532,512.0
1887,1569364,0,1.569364,511.0
1888,1570196,0,1.570196,511.0
1889,1571032,0,1.571032,511.0
1890,1571864,0,1.571864,505.0
1891,1572696,0,1.572696,504.0
1892,1573532,0,1.573532,506.0
1893,1574364,0,1.574364,510.0
1894,1575196,0,1.575196,511.0
1895,1576032,0,1.576032,506.0
1896,1576864,0,1.576864,509.0
1897,1577696,0,1.577696,512.0
1898,1578532,0,1.578532,510.0
1899,1579364,0,1.579364,513.0
1900,1580196,0,1.580196,512.0
1901,1581032,0,1.581032,512.0
1902,1581864,0,1.581864,512.0
1903,1582696,0,1.582696,511.0
1904,1583532,0,1.583532,512.0
1905,1584364,0,1.584364,510.0
1906,1585196,0,1.585196,508.0
1907,1586032,0,1.586032,512.0
1908,1586864,0,1.586864,509.0
1909,1587700,0,1.5877,510.0
1910,1588532,0,1.588532,510.0
1911,1589364,0,1.589364,504.0
1912,1590200,0,1.5902,508.0
1913,1591032,0,1.591032,510.0
1914,1591864,0,1.591864,509.0
1915,1592700,0,1.5927,513.0
1916,1593532,0,1.593532,511.0
1917,1594364,0,1.594364,513.0
1918,1595200,0,1.5952,514.0
1919,1596032,0,1.596032,510.0
1920,1596864,0,1.596864,510.0
1921,1597700,0,1.5977,509.0
1922,1598532,0,1.598532,507.0
1923,1599364,0,1.599364,510.0
1924,1600200,0,1.6002,509.0
1925,1601032,0,1.601032,512.0
1926,1601864,0,1.601864,512.0
1927,1602700,0,1.6027,508.0
1928,1603532,0,1.603532,512.0
1929,1604364,0,1.604364,515.0
1930,1605200,0,1.6052,507.0
1931,1606032,0,1.606032,508.0
1932,1606864,0,1.606864,499.0
1933,1607700,0,1.6077,508.0
1934,1608532,0,1.608532,510.0
1935,1609364,0,1.609364,512.0
1936,1610200,0,1.6102,512.0
1937,1611032,0,1.611032,513.0
1938,1611864,0,1.611864,510.0
1939,1612700,0,1.6127,511.0
1940,1613532,0,1.613532,510.0
1941,1614368,0,1.614368,510.0
1942,1615200,0,1.6152,511.0
1943,1616032,0,1.616032,506.0
1944,1616868,0,1.616868,509.0
1945,1617700,0,1.6177,507.0
1946,1618532,0,1.618532,508.0
1947,1619368,0,1.619368,511.0
1948,1620200,0,1.6202,510.0
1949,1621032,0,1.621032,513.0
1950,1621868,0,1.621868,508.0
1951,1622700,0,1.6227,508.0
1952,1623532,0,1.623532,514.0
1953,1624368,0,1.624368,511.0
1954,1625200,0,1.6252,510.0
1955,1626032,0,1.626032,513.0
1956,1626868,0,1.626868,509.0
1957,1627700,0,1.6277,512.0
1958,1628532,0,1.628532,513.0
1959,1629368,0,1.629368,508.0
1960,1630200,0,1.6302,508.0
1961,1631032,0,1.631032,506.0
1962,1631868,0,1.631868,511.0
1963,1632700,0,1.6327,513.0
1964,1633532,0,1.633532,507.0
1965,1634368,0,1.634368,512.0
1966,1635200,0,1.6352,512.0
1967,1636032,0,1.636032,511.0
1968,1636868,0,1.636868,512.0
1969,1637700,0,1.6377,510.0
1970,1638532,0,1.638532,510.0
1971,1639368,0,1.639368,510.0
1972,1640200,0,1.6402,507.0
1973,1641036,0,1.641036,509.0
1974,1641868,0,1.641868,513.0
1975,1642700,0,1.6427,508.0
1976,1643536,0,1.643536,513.0
1977,1644368,0,1.644368,513.0
1978,1645200,0,1.6452,510.0
1979,1646036,0,1.646036,509.0
1980,1646868,0,1.646868,507.0
1981,1647700,0,1.6477,510.0
1982,1648536,0,1.648536,508.0
1983,1649368,0,1.649368,505.0
1984,1650200,0,1.6502,511.0
1985,1651036,0,1.651036,512.0
1986,1651868,0,1.651868,512.0
1987,1652700,0,1.6527,513.0
1988,1653536,0,1.653536,509.0
1989,1654368,0,1.654368,511.0
1990,1655200,0,1.6552,511.0
1991,1656036,0,1.656036,509.0
1992,1656868,0,1.656868,512.0
1993,1657700,0,1.6577,510.0
1994,1658536,0,1.658536,506.0
1995,1659368,0,1.659368,513.0
1996,1660200,0,1.6602,508.0
1997,1661036,0,1.661036,508.0
1998,1661868,0,1.661868,511.0
1999,1662700,0,1.6627,510.0
2000,1663536,0,1.663536,508.0
2001,1664368,0,1.664368,508.0
2002,1665200,0,1.6652,509.0
2003,1666036,0,1.666036,511.0
2004,1666868,0,1.666868,512.0
2005,1667704,0,1.667704,512.0
2006,1668536,0,1.668536,513.0
2007,1669368,0,1.669368,510.0
2008,1670204,0,1.670204,512.0
2009,1671036,0,1.671036,509.0
2010,1671868,0,1.671868,507.0
2011,1672704,0,1.672704,511.0
2012,1673536,0,1.673536,507.0
2013,1674368,0,1.674368,510.0
2014,1675204,0,1.675204,513.0
2015,1676036,0,1.676036,510.0
2016,1676868,0,1.676868,511.0
2017,1677704,0,1.677704,514.0
2018,1678536,0,1.678536,508.0
2019,1679368,0,1.679368,504.0
2020,1680204,0,1.680204,504.0
2021,1681036,0,1.681036,510.0
2022,1681868,0,1.681868,513.0
2023,1682704,0,1.682704,509.0
2024,1683536,0,1.683536,509.0
2025,1684368,0,1.684368,510.0
2026,1685204,0,1.685204,511.0
2027,1686036,0,1.686036,511.0
2028,1686868,0,1.686868,507.0
2029,1687704,0,1.687704,511.0
2030,1688536,0,1.688536,511.0
2031,1689368,0,1.689368,510.0
2032,1690204,0,1.690204,516.0
2033,1691036,0,1.691036,513.0
2034,1691872,0,1.691872,511.0
2035,1692704,0,1.692704,511.0
2036,1693536,0,1.693536,505.0
2037,1694372,0,1.694372,509.0
2038,1695204,0,1.695204,510.0
2039,1696036,0,1.696036,505.0
2040,1696872,0,1.696872,511.0
2041,1697704,0,1.697704,512.0
2042,1698536,0,1.698536,506.0
2043,1699372,0,1.699372,511.0
2044,1700204,0,1.700204,510.0
2045,1701036,0,1.701036,514.0
2046,1701872,0,1.701872,510.0
2047,1702704,0,1.702704,509.0
2048,1703536,0,1.703536,511.0
2049,1704372,0,1.704372,510.0
2050,1705204,0,1.705204,509.0
2051,1706036,0,1.706036,511.0
2052,1706872,0,1.706872,507.0
2053,1707704,0,1.707704,512.0
2054,1708536,0,1.708536,511.0
2055,1709372,0,1.709372,506.0
2056,1710204,0,1.710204,508.0
2057,1711036,0,1.711036,511.0
2058,1711872,0,1.711872,510.0
2059,1712704,0,1.712704,513.0
2060,1713536,0,1.713536,507.0
2061,1714372,0,1.714372,511.0
2062,1715208,0,1.715208,511.0
2063,1716036,0,1.716036,508.0
2064,1716872,0,1.716872,510.0
2065,1717704,0,1.717704,513.0
2066,1718536,0,1.718536,509.0
2067,1719372,0,1.719372,511.0
2068,1720204,0,1.720204,509.0
2069,1721040,0,1.72104,511.0
2070,1721872,0,1.721872,509.0
2071,1722704,0,1.722704,507.0
2072,1723540,0,1.72354,512.0
2073,1724372,0,1.724372,509.0
2074,1725204,0,1.725204,504.0
2075,1726040,0,1.72604,510.0
2076,1726872,0,1.726872,504.0
2077,1727704,0,1.727704,511.0
2078,1728540,0,1.72854,515.0
2079,1729372,0,1.729372,509.0
2080,1730204,0,1.730204,509.0
2081,1731040,0,1.73104,509.0
2082,1731872,0,1.731872,509.0
2083,1732704,0,1.732704,510.0
2084,1733540,0,1.73354,508.0
2085,1734372,0,1.734372,513.0
2086,1735204,0,1.735204,513.0
2087,1736040,0,1.73604,508.0
2088,1736872,0,1.736872,511.0
2089,1737704,0,1.737704,513.0
2090,1738540,0,1.73854,512.0
2091,1739372,0,1.739372,511.0
2092,1740204,0,1.740204,506.0
2093,1741040,0,1.74104,507.0
2094,1741872,0,1.741872,508.0
2095,1742704,0,1.742704,512.0
2096,1743540,0,1.74354,515.0
2097,1744372,0,1.744372,510.0
2098,1745204,0,1.745204,508.0
2099,1746040,0,1.74604,510.0
2100,1746872,0,1.746872,507.0
2101,1747708,0,1.747708,511.0
2102,1748540,0,1.74854,513.0
2103,1749372,0,1.749372,507.0
2104,1750208,0,1.750208,509.0
2105,1751040,0,1.75104,512.0
2106,1751872,0,1.751872,509.0
2107,1752708,0,1.752708,511.0
2108,1753540,0,1.75354,507.0
2109,1754372,0,1.754372,512.0
2110,1755208,0,1.755208,508.0
2111,1756040,0,1.75604,505.0
2112,1756872,0,1.756872,510.0
2113,1757708,0,1.757708,513.0
2114,1758540,0,1.75854,514.0
2115,1759372,0,1.759372,511.0
2116,1760208,0,1.760208,510.0
2117,1761040,0,1.76104,513.0
2118,1761872,0,1.761872,511.0
2119,1762708,0,1.762708,506.0
2120,1763540,0,1.76354,511.0
2121,1764372,0,1.764372,510.0
2122,1765208,0,1.765208,509.0
2123,1766040,0,1.76604,512.0
2124,1766872,0,1.766872,507.0
2125,1767708,0,1.767708,510.0
2126,1768540,0,1.76854,511.0
2127,1769372,0,1.769372,507.0
2128,1770208,0,1.770208,509.0
2129,1771040,0,1.77104,509.0
2130,1771872,0,1.771872,506.0
2131,1772708,0,1.772708,509.0
2132,1773540,0,1.77354,508.0
2133,1774376,0,1.774376,512.0
2134,1775208,0,1.775208,510.0
2135,1776040,0,1.77604,508.0
2136,1776876,0,1.776876,510.0
2137,1777708,0,1.777708,513.0
2138,1778540,0,1.77854,510.0
2139,1779376,0,1.779376,513.0
2140,1780208,0,1.780208,508.0
2141,1781040,0,1.78104,510.0
2142,1781876,0,1.781876,511.0
2143,1782708,0,1.782708,507.0
2144,1783540,0,1.78354,511.0
2145,1784376,0,1.784376,512.0
2146,1785208,0,1.785208,509.0
2147,1786040,0,1.78604,510.0
2148,1786876,0,1.786876,504.0
2149,1787708,0,1.787708,508.0
2150,1788540,0,1.78854,510.0
2151,1789376,0,1.789376,512.0
2152,1790208,0,1.790208,512.0
2153,1791040,0,1.79104,508.0
2154,1791876,0,1.791876,510.0
2155,1792708,0,1.792708,510.0
2156,1793540,0,1.79354,510.0
2157,1794376,0,1.794376,514.0
2158,1795208,0,1.795208,511.0
2159,1796040,0,1.79604,509.0
2160,1796876,0,1.796876,510.0
2161,1797708,0,1.797708,511.0
2162,1798544,0,1.798544,508.0
2163,1799376,0,1.799376,510.0
2164,1800208,0,1.800208,507.0
2165,1801044,0,1.801044,511.0
2166,1801876,0,1.801876,510.0
2167,1802708,0,1.802708,509.0
2168,1803544,0,1.803544,511.0
2169,1804376,0,1.804376,512.0
2170,1805208,0,1.805208,509.0
2171,1806044,0,1.806044,511.0
2172,1806876,0,1.806876,504.0
2173,1807708,0,1.807708,512.0
2174,1808544,0,1.808544,513.0
2175,1809376,0,1.809376,512.0
2176,1810208,0,1.810208,516.0
2177,1811044,0,1.811044,514.0
2178,1811876,0,1.811876,511.0
2179,1812708,0,1.812708,512.0
2180,1813544,0,1.813544,506.0
2181,1814376,0,1.814376,506.0
2182,1815208,0,1.815208,509.0
2183,1816044,0,1.816044,501.0
2184,1816876,0,1.816876,508.0
2185,1817708,0,1.817708,511.0
2186,1818544,0,1.818544,510.0
2187,1819376,0,1.819376,512.0
2188,1820208,0,1.820208,509.0
2189,1821044,0,1.821044,513.0
2190,1821876,0,1.821876,508.0
2191,1822708,0,1.822708,506.0
2192,1823544,0,1.823544,511.0
2193,1824376,0,1.824376,513.0
2194,1825212,0,1.825212,509.0
2195,1826044,0,1.826044,511.0
2196,1826876,0,1.826876,507.0
2197,1827712,0,1.827712,509.0
2198,1828544,0,1.828544,512.0
2199,1829376,0,1.829376,508.0
2200,1830212,0,1.830212,513.0
2201,1831044,0,1.831044,512.0
2202,1831876,0,1.831876,508.0
2203,1832712,0,1.832712,509.0
2204,1833544,0,1.833544,508.0
2205,1834376,0,1.834376,510.0
2206,1835212,0,1.835212,514.0
2207,1836044,0,1.836044,510.0
2208,1836876,0,1.836876,513.0
2209,1837712,0,1.837712,513.0
2210,1838544,0,1.838544,509.0
2211,1839376,0,1.839376,509.0
2212,1840212,0,1.840212,508.0
2213,1841044,0,1.841044,510.0
2214,1841876,0,1.841876,507.0
2215,1842712,0,1.842712,508.0
2216,1843544,0,1.843544,512.0
2217,1844376,0,1.844376,511.0
2218,1845212,0,1.845212,509.0
2219,1846044,0,1.846044,513.0
2220,1846876,0,1.846876,505.0
2221,1847712,0,1.847712,505.0
2222,1848544,0,1.848544,510.0
2223,1849376,0,1.849376,507.0
2224,1850212,0,1.850212,512.0
2225,1851044,0,1.851044,513.0
2226,1851876,0,1.851876,507.0
2227,1852712,0,1.852712,512.0
2228,1853544,0,1.853544,509.0
2229,1854380,0,1.85438,513.0
2230,1855212,0,1.855212,513.0
2231,1856044,0,1.856044,506.0
2232,1856880,0,1.85688,510.0
2233,1857712,0,1.857712,512.0
2234,1858544,0,1.858544,510.0
2235,1859380,0,1.85938,511.0
2236,1860212,0,1.860212,508.0
2237,1861044,0,1.861044,510.0
2238,1861880,0,1.86188,509.0
2239,1862712,0,1.862712,506.0
2240,1863544,0,1.863544,510.0
2241,1864380,0,1.86438,512.0
2242,1865212,0,1.865212,507.0
2243,1866044,0,1.866044,512.0
2244,1866880,0,1.86688,506.0
2245,1867712,0,1.867712,511.0
2246,1868544,0,1.868544,509.0
2247,1869380,0,1.86938,511.0
2248,1870212,0,1.870212,512.0
2249,1871044,0,1.871044,513.0
2250,1871880,0,1.87188,508.0
2251,1872712,0,1.872712,511.0
2252,1873544,0,1.873544,507.0
2253,1874380,0,1.87438,510.0
2254,1875212,0,1.875212,511.0
2255,1876044,0,1.876044,506.0
2256,1876880,0,1.87688,508.0
2257,1877712,0,1.877712,512.0
2258,1878548,0,1.878548,510.0
2259,1879380,0,1.87938,513.0
2260,1880212,0,1.880212,506.0
2261,1881048,0,1.881048,513.0
2262,1881880,0,1.88188,510.0
2263,1882712,0,1.882712,508.0
2264,1883548,0,1.883548,513.0
2265,1884380,0,1.88438,515.0
2266,1885212,0,1.885212,511.0
2267,1886048,0,1.886048,513.0
2268,1886880,0,1.88688,508.0
2269,1887712,0,1.887712,510.0
2270,1888548,0,1.888548,511.0
2271,1889380,0,1.88938,510.0
2272,1890212,0,1.890212,510.0
2273,1891048,0,1.891048,511.0
2274,1891880,0,1.89188,504.0
2275,1892712,0,1.892712,510.0
2276,1893548,0,1.893548,507.0
2277,1894380,0,1.89438,509.0
2278,1895212,0,1.895212,511.0
2279,1896048,0,1.896048,509.0
2280,1896880,0,1.89688,513.0
2281,1897712,0,1.897712,512.0
2282,1898548,0,1.898548,510.0
2283,1899380,0,1.89938,510.0
2284,1900212,0,1.900212,506.0
2285,1901048,0,1.901048,512.0
2286,1901880,0,1.90188,513.0
2287,1902712,0,1.902712,508.0
2288,1903548,0,1.903548,509.0
2289,1904380,0,1.90438,509.0
2290,1905212,0,1.905212,508.0
2291,1906048,0,1.906048,508.0
2292,1906880,0,1.90688,505.0
2293,1907720,0,1.90772,510.0
2294,1908548,0,1.908548,510.0
2295,1909380,0,1.90938,507.0
2296,1910216,0,1.910216,511.0
2297,1911048,0,1.911048,511.0
2298,1911880,0,1.91188,511.0
2299,1912716,0,1.912716,511.0
2300,1913548,0,1.913548,507.0
2301,1914380,0,1.91438,510.0
2302,1915216,0,1.915216,511.0
2303,1916048,0,1.916048,510.0
2304,1916880,0,1.91688,510.0
2305,1917716,0,1.917716,511.0
2306,1918548,0,1.918548,508.0
2307,1919380,0,1.91938,511.0
2308,1920216,0,1.920216,506.0
2309,1921048,0,1.921048,512.0
2310,1921880,0,1.92188,510.0
2311,1922716,0,1.922716,509.0
2312,1923548,0,1.923548,514.0
2313,1924380,0,1.92438,514.0
2314,1925216,0,1.925216,506.0
2315,1926048,0,1.926048,511.0
2316,1926880,0,1.92688,509.0
2317,1927716,0,1.927716,513.0
2318,1928548,0,1.928548,512.0
2319,1929380,0,1.92938,507.0
2320,1930216,0,1.930216,511.0
2321,1931048,0,1.931048,510.0
2322,1931884,0,1.931884,509.0
2323,1932716,0,1.932716,512.0
2324,1933548,0,1.933548,506.0
2325,1934384,0,1.934384,510.0
2326,1935216,0,1.935216,510.0
2327,1936048,0,1.936048,509.0
2328,1936884,0,1.936884,513.0
2329,1937716,0,1.937716,510.0
2330,1938548,0,1.938548,506.0
2331,1939384,0,1.939384,510.0
2332,1940216,0,1.940216,503.0
2333,1941048,0,1.941048,512.0
2334,1941884,0,1.941884,509.0
2335,1942716,0,1.942716,506.0
2336,1943548,0,1.943548,514.0
2337,1944384,0,1.944384,513.0
2338,1945216,0,1.945216,509.0
2339,1946048,0,1.946048,511.0
2340,1946884,0,1.946884,510.0
2341,1947716,0,1.947716,512.0
2342,1948548,0,1.948548,513.0
2343,1949384,0,1.949384,509.0
2344,1950216,0,1.950216,512.0
2345,1951048,0,1.951048,510.0
2346,1951884,0,1.951884,508.0
2347,1952716,0,1.952716,505.0
2348,1953548,0,1.953548,504.0
2349,1954384,0,1.954384,509.0
2350,1955216,0,1.955216,515.0
2351,1956048,0,1.956048,510.0
2352,1956884,0,1.956884,512.0
2353,1957716,0,1.957716,515.0
2354,1958548,0,1.958548,511.0
2355,1959384,0,1.959384,511.0
2356,1960216,0,1.960216,508.0
2357,1961052,0,1.961052,513.0
2358,1961884,0,1.961884,514.0
2359,1962716,0,1.962716,509.0
2360,1963552,0,1.963552,509.0
2361,1964384,0,1.964384,508.0
2362,1965216,0,1.965216,508.0
2363,1966052,0,1.966052,508.0
2364,1966884,0,1.966884,507.0
2365,1967716,0,1.967716,510.0
2366,1968552,0,1.968552,512.0
2367,1969384,0,1.969384,512.0
2368,1970216,0,1.970216,512.0
2369,1971052,0,1.971052,512.0
2370,1971884,0,1.971884,509.0
2371,1972716,0,1.972716,509.0
2372,1973552,0,1.973552,508.0
2373,1974384,0,1.974384,513.0
2374,1975216,0,1.975216,514.0
2375,1976052,0,1.976052,512.0
2376,1976884,0,1.976884,512.0
2377,1977716,0,1.977716,512.0
2378,1978552,0,1.978552,509.0
2379,1979384,0,1.979384,508.0
2380,1980216,0,1.980216,502.0
2381,1981052,0,1.981052,510.0
2382,1981884,0,1.981884,511.0
2383,1982716,0,1.982716,508.0
2384,1983552,0,1.983552,512.0
2385,1984384,0,1.984384,510.0
2386,1985216,0,1.985216,507.0
2387,1986052,0,1.986052,510.0
2388,1986884,0,1.986884,510.0
2389,1987720,0,1.98772,512.0
2390,1988552,0,1.988552,511.0
2391,1989384,0,1.989384,511.0
2392,1990220,0,1.99022,510.0
2393,1991052,0,1.991052,510.0
2394,1991884,0,1.991884,509.0
2395,1992720,0,1.99272,511.0
2396,1993552,0,1.993552,508.0
2397,1994384,0,1.994384,514.0
2398,1995220,0,1.99522,509.0
2399,1996052,0,1.996052,510.0
2400,1996884,0,1.996884,511.0
2401,1997720,0,1.99772,508.0
2402,1998552,0,1.998552,506.0
2403,1999384,0,1.999384,512.0
2404,2000220,0,2.00022,506.0
2405,2001052,0,2.001052,513.0
2406,2001884,0,2.001884,514.0
2407,2002720,0,2.00272,507.0
2408,2003552,0,2.003552,509.0
2409,2004384,0,2.004384,512.0
2410,2005220,0,2.00522,506.0
2411,2006052,0,2.006052,512.0
2412,2006884,0,2.006884,506.0
2413,2007720,0,2.00772,513.0
2414,2008552,0,2.008552,510.0
2415,2009384,0,2.009384,509.0
2416,2010220,0,2.01022,513.0
2417,2011052,0,2.011052,511.0
2418,2011884,0,2.011884,508.0
2419,2012720,0,2.01272,510.0
2420,2013552,0,2.013552,506.0
2421,2014388,0,2.014388,512.0
2422,2015220,0,2.01522,512.0
2423,2016052,0,2.016052,511.0
2424,2016888,0,2.016888,511.0
2425,2017720,0,2.01772,511.0
2426,2018552,0,2.018552,504.0
2427,2019388,0,2.019388,512.0
2428,2020220,0,2.02022,511.0
2429,2021052,0,2.021052,514.0
2430,2021888,0,2.021888,514.0
2431,2022720,0,2.02272,504.0
2432,2023552,0,2.023552,510.0
2433,2024388,0,2.024388,513.0
2434,2025220,0,2.02522,509.0
2435,2026052,0,2.026052,510.0
2436,2026888,0,2.026888,510.0
2437,2027720,0,2.02772,514.0
2438,2028552,0,2.028552,512.0
2439,2029388,0,2.029388,508.0
2440,2030220,0,2.03022,510.0
2441,2031052,0,2.031052,508.0
2442,2031888,0,2.031888,509.0
2443,2032720,0,2.03272,510.0
2444,2033552,0,2.033552,508.0
2445,2034388,0,2.034388,508.0
2446,2035220,0,2.03522,513.0
2447,2036052,0,2.036052,509.0
2448,2036888,0,2.036888,512.0
2449,2037720,0,2.03772,513.0
2450,2038556,0,2.038556,510.0
2451,2039388,0,2.039388,512.0
2452,2040220,0,2.04022,509.0
2453,2041056,0,2.041056,510.0
2454,2041888,0,2.041888,507.0
2455,2042720,0,2.04272,507.0
2456,2043556,0,2.043556,509.0
2457,2044388,0,2.044388,512.0
2458,2045220,0,2.04522,508.0
2459,2046056,0,2.046056,508.0
2460,2046888,0,2.046888,508.0
2461,2047720,0,2.04772,510.0
2462,2048556,0,2.048556,512.0
2463,2049388,0,2.049388,507.0
2464,2050220,0,2.05022,512.0
2465,2051056,0,2.051056,512.0
2466,2051888,0,2.051888,511.0
2467,2052720,0,2.05272,514.0
2468,2053556,0,2.053556,504.0
2469,2054388,0,2.054388,510.0
2470,2055220,0,2.05522,511.0
2471,2056056,0,2.056056,510.0
2472,2056888,0,2.056888,511.0
2473,2057720,0,2.05772,511.0
2474,2058556,0,2.058556,508.0
2475,2059388,0,2.059388,510.0
2476,2060220,0,2.06022,506.0
2477,2061056,0,2.061056,511.0
2478,2061888,0,2.061888,512.0
2479,2062720,0,2.06272,510.0
2480,2063556,0,2.063556,513.0
2481,2064392,0,2.064392,508.0
2482,2065224,0,2.065224,508.0
2483,2066056,0,2.066056,513.0
2484,2066888,0,2.066888,508.0
2485,2067724,0,2.067724,513.0
2486,2068556,0,2.068556,511.0
2487,2069388,0,2.069388,508.0
2488,2070224,0,2.070224,510.0
2489,2071056,0,2.071056,512.0
2490,2071888,0,2.071888,508.0
2491,2072724,0,2.072724,510.0
2492,2073556,0,2.073556,507.0
2493,2074388,0,2.074388,511.0
2494,2075224,0,2.075224,511.0
2495,2076056,0,2.076056,505.0
2496,2076888,0,2.076888,511.0
2497,2077724,0,2.077724,514.0
2498,2078556,0,2.078556,510.0
2499,2079388,0,2.079388,513.0
2500,2080224,0,2.080224,507.0
2501,2081056,0,2.081056,511.0
2502,2081888,0,2.081888,511.0
2503,2082724,0,2.082724,504.0
2504,2083556,0,2.083556,511.0
2505,2084388,0,2.084388,510.0
2506,2085224,0,2.085224,508.0
2507,2086056,0,2.086056,511.0
2508,2086888,0,2.086888,507.0
2509,2087724,0,2.087724,510.0
2510,2088556,0,2.088556,510.0
2511,2089388,0,2.089388,506.0
2512,2090224,0,2.090224,512.0
2513,2091056,0,2.091056,512.0
2514,2091888,0,2.091888,507.0
2515,2092724,0,2.092724,512.0
2516,2093556,0,2.093556,510.0
2517,2094392,0,2.094392,512.0
2518,2095224,0,2.095224,515.0
2519,2096056,0,2.096056,511.0
2520,2096892,0,2.096892,513.0
2521,2097724,0,2.097724,512.0
2522,2098556,0,2.098556,508.0
2523,2099392,0,2.099392,512.0
2524,2100224,0,2.100224,506.0
2525,2101056,0,2.101056,510.0
2526,2101892,0,2.101892,513.0
2527,2102724,0,2.102724,508.0
2528,2103556,0,2.103556,513.0
2529,2104392,0,2.104392,511.0
2530,2105224,0,2.105224,508.0
2531,2106056,0,2.106056,509.0
2532,2106892,0,2.106892,505.0
2533,2107724,0,2.107724,506.0
2534,2108556,0,2.108556,510.0
2535,2109392,0,2.109392,509.0
2536,2110224,0,2.110224,511.0
2537,2111056,0,2.111056,515.0
2538,2111892,0,2.111892,513.0
2539,2112724,0,2.112724,514.0
2540,2113556,0,2.113556,510.0
2541,2114392,0,2.114392,514.0
2542,2115224,0,2.115224,512.0
2543,2116056,0,2.116056,508.0
2544,2116892,0,2.116892,511.0
2545,2117724,0,2.117724,509.0
2546,2118560,0,2.11856,507.0
2547,2119392,0,2.119392,511.0
2548,2120224,0,2.120224,507.0
2549,2121060,0,2.12106,511.0
2550,2121892,0,2.121892,511.0
2551,2122724,0,2.122724,507.0
2552,2123560,0,2.12356,511.0
2553,2124392,0,2.124392,513.0
2554,2125224,0,2.125224,509.0
2555,2126060,0,2.12606,513.0
2556,2126892,0,2.126892,509.0
2557,2127724,0,2.127724,511.0
2558,2128560,0,2.12856,510.0
2559,2129392,0,2.129392,509.0
2560,2130224,0,2.130224,513.0
2561,2131060,0,2.13106,511.0
2562,2131892,0,2.131892,510.0
2563,2132724,0,2.132724,511.0
2564,2133560,0,2.13356,505.0
2565,2134392,0,2.134392,510.0
2566,2135224,0,2.135224,509.0
2567,2136060,0,2.13606,509.0
2568,2136892,0,2.136892,512.0
2569,2137724,0,2.137724,511.0
2570,2138560,0,2.13856,508.0
2571,2139392,0,2.139392,510.0
2572,2140224,0,2.140224,506.0
2573,2141060,0,2.14106,511.0
2574,2141892,0,2.141892,511.0
2575,2142724,0,2.142724,509.0
2576,2143560,0,2.14356,513.0
2577,2144392,0,2.144392,512.0
2578,2145224,0,2.145224,508.0
2579,2146060,0,2.14606,510.0
2580,2146892,0,2.146892,506.0
2581,2147728,0,2.147728,513.0
2582,2148560,0,2.14856,511.0
2583,2149392,0,2.149392,508.0
2584,2150228,0,2.150228,508.0
2585,2151060,0,2.15106,512.0
2586,2151892,0,2.151892,506.0
2587,2152728,0,2.152728,510.0
2588,2153560,0,2.15356,507.0
2589,2154392,0,2.154392,512.0
2590,2155228,0,2.155228,514.0
2591,2156060,0,2.15606,512.0
2592,2156892,0,2.156892,513.0
2593,2157728,0,2.157728,510.0
2594,2158560,0,2.15856,506.0
2595,2159392,0,2.159392,509.0
2596,2160228,0,2.160228,507.0
2597,2161060,0,2.16106,511.0
2598,2161892,0,2.161892,509.0
2599,2162728,0,2.162728,509.0
2600,2163560,0,2.16356,512.0
2601,2164392,0,2.164392,512.0
2602,2165228,0,2.165228,507.0
2603,2166060,0,2.16606,509.0
2604,2166892,0,2.166892,508.0
2605,2167728,0,2.167728,509.0
2606,2168560,0,2.16856,510.0
2607,2169392,0,2.169392,510.0
2608,2170228,0,2.170228,511.0
2609,2171060,0,2.17106,512.0
2610,2171896,0,2.171896,508.0
2611,2172728,0,2.172728,511.0
2612,2173560,0,2.17356,510.0
2613,2174396,0,2.174396,512.0
2614,2175228,0,2.175228,512.0
2615,2176060,0,2.17606,507.0
2616,2176896,0,2.176896,510.0
2617,2177728,0,2.177728,510.0
2618,2178560,0,2.17856,511.0
2619,2179396,0,2.179396,510.0
2620,2180228,0,2.180228,507.0
2621,2181060,0,2.18106,509.0
2622,2181896,0,2.181896,512.0
2623,2182728,0,2.182728,506.0
2624,2183560,0,2.18356,507.0
2625,2184396,0,2.184396,512.0
2626,2185228,0,2.185228,511.0
2627,2186060,0,2.18606,513.0
2628,2186896,0,2.186896,509.0
2629,2187728,0,2.187728,510.0
2630,2188560,0,2.18856,512.0
2631,2189396,0,2.189396,507.0
2632,2190228,0,2.190228,513.0
2633,2191060,0,2.19106,513.0
2634,2191896,0,2.191896,508.0
2635,2192728,0,2.192728,507.0
2636,2193560,0,2.19356,509.0
2637,2194396,0,2.194396,512.0
2638,2195228,0,2.195228,509.0
2639,2196060,0,2.19606,510.0
2640,2196896,0,2.196896,513.0
2641,2197728,0,2.197728,512.0
2642,2198560,0,2.19856,505.0
2643,2199396,0,2.199396,509.0
2644,2200228,0,2.200228,506.0
2645,2201064,0,2.201064,510.0
2646,2201896,0,2.201896,512.0
2647,2202728,0,2.202728,509.0
2648,2203564,0,2.203564,511.0
2649,2204396,0,2.204396,511.0
2650,2205228,0,2.205228,509.0
2651,2206064,0,2.206064,512.0
2652,2206896,0,2.206896,508.0
2653,2207728,0,2.207728,511.0
2654,2208564,0,2.208564,511.0
2655,2209396,0,2.209396,510.0
2656,2210228,0,2.210228,511.0
2657,2211064,0,2.211064,510.0
2658,2211896,0,2.211896,509.0
2659,2212728,0,2.212728,511.0
2660,2213564,0,2.213564,507.0
2661,2214396,0,2.214396,508.0
2662,2215228,0,2.215228,511.0
2663,2216064,0,2.216064,510.0
2664,2216896,0,2.216896,511.0
2665,2217728,0,2.217728,508.0
2666,2218564,0,2.218564,509.0
2667,2219396,0,2.219396,515.0
2668,2220228,0,2.220228,510.0
2669,2221064,0,2.221064,512.0
2670,2221896,0,2.221896,513.0
2671,2222728,0,2.222728,509.0
2672,2223564,0,2.223564,510.0
2673,2224396,0,2.224396,509.0
2674,2225228,0,2.225228,509.0
2675,2226064,0,2.226064,506.0
2676,2226896,0,2.226896,506.0
2677,2227732,0,2.227732,512.0
2678,2228564,0,2.228564,515.0
2679,2229396,0,2.229396,506.0
2680,2230232,0,2.230232,512.0
2681,2231064,0,2.231064,514.0
2682,2231896,0,2.231896,511.0
2683,2232732,0,2.232732,511.0
2684,2233564,0,2.233564,506.0
2685,2234396,0,2.234396,513.0
2686,2235232,0,2.235232,511.0
2687,2236064,0,2.236064,510.0
2688,2236896,0,2.236896,513.0
2689,2237732,0,2.237732,509.0
2690,2238564,0,2.238564,505.0
2691,2239396,0,2.239396,508.0
2692,2240232,0,2.240232,509.0
2693,2241064,0,2.241064,508.0
2694,2241896,0,2.241896,511.0
2695,2242732,0,2.242732,508.0
2696,2243564,0,2.243564,511.0
2697,2244396,0,2.244396,512.0
2698,2245232,0,2.245232,507.0
2699,2246064,0,2.246064,512.0
2700,2246896,0,2.246896,509.0
2701,2247732,0,2.247732,512.0
2702,2248564,0,2.248564,509.0
2703,2249396,0,2.249396,504.0
2704,2250232,0,2.250232,511.0
2705,2251064,0,2.251064,513.0
2706,2251900,0,2.2519,508.0
2707,2252732,0,2.252732,511.0
2708,2253564,0,2.253564,507.0
2709,2254400,0,2.2544,513.0
2710,2255232,0,2.255232,511.0
2711,2256064,0,2.256064,509.0
2712,2256904,0,2.256904,508.0
2713,2257732,0,2.257732,512.0
2714,2258564,0,2.258564,509.0
2715,2259400,0,2.2594,511.0
2716,2260232,0,2.260232,507.0
2717,2261064,0,2.261064,510.0
2718,2261900,0,2.2619,511.0
2719,2262732,0,2.262732,511.0
2720,2263564,0,2.263564,510.0
2721,2264400,0,2.2644,512.0
2722,2265232,0,2.265232,509.0
2723,2266064,0,2.266064,512.0
2724,2266900,0,2.2669,509.0
2725,2267732,0,2.267732,512.0
2726,2268564,0,2.268564,511.0
2727,2269400,0,2.2694,507.0
2728,2270232,0,2.270232,512.0
2729,2271064,0,2.271064,512.0
2730,2271900,0,2.2719,509.0
2731,2272732,0,2.272732,514.0
2732,2273564,0,2.273564,507.0
2733,2274400,0,2.2744,512.0
2734,2275232,0,2.275232,507.0
2735,2276064,0,2.276064,507.0
2736,2276900,0,2.2769,510.0
2737,2277732,0,2.277732,513.0
2738,2278568,0,2.278568,511.0
2739,2279400,0,2.2794,513.0
2740,2280232,0,2.280232,508.0
2741,2281068,0,2.281068,512.0
2742,2281900,0,2.2819,512.0
2743,2282732,0,2.282732,508.0
2744,2283568,0,2.283568,510.0
2745,2284400,0,2.2844,509.0
2746,2285232,0,2.285232,507.0
2747,2286068,0,2.286068,513.0
2748,2286900,0,2.2869,506.0
2749,2287732,0,2.287732,510.0
2750,2288568,0,2.288568,512.0
2751,2289400,0,2.2894,506.0
2752,2290232,0,2.290232,511.0
2753,2291068,0,2.291068,513.0
2754,2291900,0,2.2919,511.0
2755,2292732,0,2.292732,513.0
2756,2293568,0,2.293568,505.0
2757,2294400,0,2.2944,511.0
2758,2295232,0,2.295232,509.0
2759,2296068,0,2.296068,510.0
2760,2296900,0,2.2969,513.0
2761,2297732,0,2.297732,514.0
2762,2298568,0,2.298568,508.0
2763,2299400,0,2.2994,512.0
2764,2300232,0,2.300232,506.0
2765,2301068,0,2.301068,509.0
2766,2301900,0,2.3019,510.0
2767,2302732,0,2.302732,507.0
2768,2303568,0,2.303568,511.0
2769,2304400,0,2.3044,514.0
2770,2305236,0,2.305236,509.0
2771,2306068,0,2.306068,513.0
2772,2306900,0,2.3069,509.0
2773,2307736,0,2.307736,510.0
2774,2308568,0,2.308568,508.0
2775,2309400,0,2.3094,506.0
2776,2310236,0,2.310236,512.0
2777,2311068,0,2.311068,513.0
2778,2311900,0,2.3119,508.0
2779,2312736,0,2.312736,511.0
2780,2313568,0,2.313568,507.0
2781,2314400,0,2.3144,511.0
2782,2315236,0,2.315236,513.0
2783,2316068,0,2.316068,510.0
2784,2316900,0,2.3169,509.0
2785,2317736,0,2.317736,511.0
2786,2318568,0,2.318568,509.0
2787,2319400,0,2.3194,513.0
2788,2320236,0,2.320236,509.0
2789,2321068,0,2.321068,511.0
2790,2321900,0,2.3219,511.0
2791,2322736,0,2.322736,506.0
2792,2323568,0,2.323568,511.0
2793,2324400,0,2.3244,510.0
2794,2325236,0,2.325236,510.0
2795,2326068,0,2.326068,511.0
2796,2326900,0,2.3269,508.0
2797,2327736,0,2.327736,512.0
2798,2328568,0,2.328568,510.0
2799,2329400,0,2.3294,509.0
2800,2330236,0,2.330236,509.0
2801,2331068,0,2.331068,511.0
2802,2331904,0,2.331904,508.0
2803,2332736,0,2.332736,510.0
2804,2333568,0,2.333568,507.0
2805,2334404,0,2.334404,512.0
2806,2335236,0,2.335236,510.0
2807,2336068,0,2.336068,508.0
2808,2336904,0,2.336904,513.0
2809,2337736,0,2.337736,513.0
2810,2338568,0,2.338568,509.0
2811,2339404,0,2.339404,508.0
2812,2340236,0,2.340236,507.0
2813,2341068,0,2.341068,509.0
2814,2341904,0,2.341904,513.0
2815,2342736,0,2.342736,511.0
2816,2343568,0,2.343568,513.0
2817,2344404,0,2.344404,512.0
2818,2345236,0,2.345236,509.0
2819,2346068,0,2.346068,512.0
2820,2346904,0,2.346904,508.0
2821,2347736,0,2.347736,510.0
2822,2348568,0,2.348568,510.0
2823,2349404,0,2.349404,506.0
2824,2350236,0,2.350236,511.0
2825,2351068,0,2.351068,507.0
2826,2351904,0,2.351904,507.0
2827,2352736,0,2.352736,512.0
2828,2353568,0,2.353568,508.0
2829,2354404,0,2.354404,511.0
2830,2355236,0,2.355236,510.0
2831,2356068,0,2.356068,507.0
2832,2356904,0,2.356904,511.0
2833,2357736,0,2.357736,512.0
2834,2358568,0,2.358568,512.0
2835,2359404,0,2.359404,514.0
2836,2360236,0,2.360236,509.0
2837,2361072,0,2.361072,512.0
2838,2361904,0,2.361904,512.0
2839,2362736,0,2.362736,509.0
2840,2363572,0,2.363572,511.0
2841,2364404,0,2.364404,510.0
2842,2365236,0,2.365236,506.0
2843,2366072,0,2.366072,510.0
2844,2366904,0,2.366904,504.0
2845,2367736,0,2.367736,512.0
2846,2368572,0,2.368572,510.0
2847,2369404,0,2.369404,509.0
2848,2370236,0,2.370236,510.0
2849,2371072,0,2.371072,511.0
2850,2371904,0,2.371904,511.0
2851,2372736,0,2.372736,512.0
2852,2373572,0,2.373572,509.0
2853,2374404,0,2.374404,512.0
2854,2375236,0,2.375236,512.0
2855,2376072,0,2.376072,507.0
2856,2376904,0,2.376904,513.0
2857,2377736,0,2.377736,510.0
2858,2378572,0,2.378572,504.0
2859,2379404,0,2.379404,512.0
2860,2380236,0,2.380236,510.0
2861,2381072,0,2.381072,511.0
2862,2381904,0,2.381904,509.0
2863,2382736,0,2.382736,507.0
2864,2383572,0,2.383572,513.0
2865,2384404,0,2.384404,509.0
2866,2385236,0,2.385236,507.0
2867,2386072,0,2.386072,510.0
2868,2386904,0,2.386904,507.0
2869,2387740,0,2.38774,513.0
2870,2388572,0,2.388572,515.0
2871,2389404,0,2.389404,509.0
2872,2390240,0,2.39024,513.0
2873,2391072,0,2.391072,510.0
2874,2391904,0,2.391904,507.0
2875,2392740,0,2.39274,509.0
2876,2393572,0,2.393572,505.0
2877,2394404,0,2.394404,512.0
2878,2395240,0,2.39524,514.0
2879,2396072,0,2.396072,509.0
2880,2396904,0,2.396904,510.0
2881,2397740,0,2.39774,511.0
2882,2398572,0,2.398572,510.0
2883,2399404,0,2.399404,510.0
2884,2400240,0,2.40024,509.0
2885,2401072,0,2.401072,509.0
2886,2401904,0,2.401904,512.0
2887,2402740,0,2.40274,511.0
2888,2403572,0,2.403572,514.0
2889,2404404,0,2.404404,514.0
2890,2405240,0,2.40524,511.0
2891,2406072,0,2.406072,510.0
2892,2406904,0,2.406904,506.0
2893,2407740,0,2.40774,509.0
2894,2408572,0,2.408572,507.0
2895,2409404,0,2.409404,508.0
2896,2410240,0,2.41024,513.0
2897,2411072,0,2.411072,515.0
2898,2411908,0,2.411908,512.0
2899,2412740,0,2.41274,513.0
2900,2413576,0,2.413576,511.0
2901,2414408,0,2.414408,512.0
2902,2415240,0,2.41524,512.0
2903,2416072,0,2.416072,506.0
2904,2416908,0,2.416908,508.0
2905,2417740,0,2.41774,510.0
2906,2418572,0,2.418572,507.0
2907,2419408,0,2.419408,512.0
2908,2420240,0,2.42024,510.0
2909,2421072,0,2.421072,512.0
2910,2421908,0,2.421908,512.0
2911,2422740,0,2.42274,510.0
2912,2423572,0,2.423572,510.0
2913,2424408,0,2.424408,509.0
2914,2425240,0,2.42524,509.0
2915,2426072,0,2.426072,513.0
2916,2426908,0,2.426908,509.0
2917,2427740,0,2.42774,514.0
2918,2428572,0,2.428572,513.0
2919,2429408,0,2.429408,509.0
2920,2430240,0,2.43024,511.0
2921,2431072,0,2.431072,508.0
2922,2431908,0,2.431908,503.0
2923,2432740,0,2.43274,507.0
2924,2433572,0,2.433572,507.0
2925,2434408,0,2.434408,511.0
2926,2435240,0,2.43524,513.0
2927,2436072,0,2.436072,510.0
2928,2436908,0,2.436908,512.0
2929,2437740,0,2.43774,513.0
2930,2438576,0,2.438576,511.0
2931,2439408,0,2.439408,509.0
2932,2440240,0,2.44024,506.0
2933,2441076,0,2.441076,510.0
2934,2441908,0,2.441908,514.0
2935,2442740,0,2.44274,508.0
2936,2443576,0,2.443576,510.0
2937,2444408,0,2.444408,511.0
2938,2445240,0,2.44524,507.0
2939,2446076,0,2.446076,510.0
2940,2446908,0,2.446908,507.0
2941,2447740,0,2.44774,512.0
2942,2448576,0,2.448576,511.0
2943,2449408,0,2.449408,505.0
2944,2450240,0,2.45024,510.0
2945,2451076,0,2.451076,511.0
2946,2451908,0,2.451908,509.0
2947,2452740,0,2.45274,511.0
2948,2453576,0,2.453576,511.0
2949,2454408,0,2.454408,509.0
2950,2455240,0,2.45524,511.0
2951,2456076,0,2.456076,507.0
2952,2456908,0,2.456908,510.0
2953,2457740,0,2.45774,510.0
2954,2458576,0,2.458576,507.0
2955,2459408,0,2.459408,511.0
2956,2460240,0,2.46024,511.0
2957,2461076,0,2.461076,511.0
2958,2461908,0,2.461908,514.0
2959,2462740,0,2.46274,504.0
2960,2463576,0,2.463576,511.0
2961,2464408,0,2.464408,513.0
2962,2465240,0,2.46524,507.0
2963,2466076,0,2.466076,512.0
2964,2466908,0,2.466908,506.0
2965,2467744,0,2.467744,510.0
2966,2468576,0,2.468576,509.0
2967,2469408,0,2.469408,505.0
2968,2470244,0,2.470244,507.0
2969,2471076,0,2.471076,509.0
2970,2471908,0,2.471908,507.0
2971,2472744,0,2.472744,511.0
2972,2473576,0,2.473576,509.0
2973,2474408,0,2.474408,507.0
2974,2475244,0,2.475244,511.0
2975,2476076,0,2.476076,509.0
2976,2476908,0,2.476908,510.0
2977,2477744,0,2.477744,511.0
2978,2478576,0,2.478576,510.0
2979,2479408,0,2.479408,513.0
2980,2480244,0,2.480244,507.0
2981,2481076,0,2.481076,511.0
2982,2481908,0,2.481908,512.0
2983,2482744,0,2.482744,509.0
2984,2483576,0,2.483576,511.0
2985,2484408,0,2.484408,510.0
2986,2485244,0,2.485244,503.0
2987,2486076,0,2.486076,511.0
2988,2486908,0,2.486908,511.0
2989,2487744,0,2.487744,515.0
2990,2488576,0,2.488576,511.0
2991,2489408,0,2.489408,506.0
2992,2490244,0,2.490244,507.0
2993,2491076,0,2.491076,509.0
2994,2491912,0,2.491912,509.0
2995,2492744,0,2.492744,508.0
2996,2493576,0,2.493576,504.0
2997,2494412,0,2.494412,513.0
2998,2495244,0,2.495244,514.0
2999,2496076,0,2.496076,510.0
3000,2496912,0,2.496912,515.0
3001,2497744,0,2.497744,511.0
3002,2498576,0,2.498576,511.0
3003,2499412,0,2.499412,510.0
3004,2500244,0,2.500244,507.0
3005,2501076,0,2.501076,509.0
3006,2501912,0,2.501912,511.0
3007,2502744,0,2.502744,509.0
3008,2503576,0,2.503576,514.0
3009,2504412,0,2.504412,511.0
3010,2505244,0,2.505244,509.0
3011,2506076,0,2.506076,516.0
3012,2506912,0,2.506912,508.0
3013,2507744,0,2.507744,510.0
3014,2508576,0,2.508576,510.0
3015,2509412,0,2.509412,507.0
3016,2510244,0,2.510244,511.0
3017,2511076,0,2.511076,508.0
3018,2511912,0,2.511912,511.0
3019,2512744,0,2.512744,515.0
3020,2513576,0,2.513576,507.0
3021,2514412,0,2.514412,513.0
3022,2515244,0,2.515244,510.0
3023,2516076,0,2.516076,501.0
3024,2516912,0,2.516912,511.0
3025,2517744,0,2.517744,511.0
3026,2518580,0,2.51858,510.0
3027,2519412,0,2.519412,514.0
3028,2520244,0,2.520244,506.0
3029,2521080,0,2.52108,510.0
3030,2521912,0,2.521912,510.0
3031,2522744,0,2.522744,507.0
3032,2523580,0,2.52358,507.0
3033,2524412,0,2.524412,511.0
3034,2525244,0,2.525244,509.0
3035,2526080,0,2.52608,511.0
3036,2526912,0,2.526912,508.0
3037,2527744,0,2.527744,511.0
3038,2528580,0,2.52858,512.0
3039,2529412,0,2.529412,510.0
3040,2530244,0,2.530244,514.0
3041,2531080,0,2.53108,511.0
3042,2531912,0,2.531912,509.0
3043,2532744,0,2.532744,513.0
3044,2533580,0,2.53358,508.0
3045,2534412,0,2.534412,511.0
3046,2535244,0,2.535244,509.0
3047,2536080,0,2.53608,506.0
3048,2536912,0,2.536912,512.0
3049,2537744,0,2.537744,509.0
3050,2538580,0,2.53858,507.0
3051,2539412,0,2.539412,511.0
3052,2540244,0,2.540244,511.0
3053,2541080,0,2.54108,510.0
3054,2541912,0,2.541912,511.0
3055,2542744,0,2.542744,508.0
3056,2543580,0,2.54358,510.0
3057,2544412,0,2.544412,515.0
3058,2545248,0,2.545248,510.0
3059,2546080,0,2.54608,512.0
3060,2546912,0,2.546912,505.0
3061,2547748,0,2.547748,512.0
3062,2548580,0,2.54858,510.0
3063,2549412,0,2.549412,509.0
3064,2550248,0,2.550248,511.0
3065,2551080,0,2.55108,508.0
3066,2551912,0,2.551912,510.0
3067,2552748,0,2.552748,512.0
3068,2553580,0,2.55358,510.0
3069,2554412,0,2.554412,510.0
3070,2555248,0,2.555248,512.0
3071,2556080,0,2.55608,509.0
3072,2556912,0,2.556912,509.0
3073,2557748,0,2.557748,513.0
3074,2558580,0,2.55858,511.0
3075,2559412,0,2.559412,512.0
3076,2560248,0,2.560248,503.0
3077,2561080,0,2.56108,511.0
3078,2561912,0,2.561912,508.0
3079,2562748,0,2.562748,510.0
3080,2563580,0,2.56358,512.0
3081,2564412,0,2.564412,511.0
3082,2565248,0,2.565248,508.0
3083,2566080,0,2.56608,507.0
3084,2566912,0,2.566912,506.0
3085,2567748,0,2.567748,512.0
3086,2568580,0,2.56858,508.0
3087,2569412,0,2.569412,506.0
3088,2570248,0,2.570248,513.0
3089,2571080,0,2.57108,515.0
3090,2571912,0,2.571912,511.0
3091,2572748,0,2.572748,512.0
3092,2573580,0,2.57358,511.0
3093,2574416,0,2.574416,511.0
3094,2575248,0,2.575248,511.0
3095,2576080,0,2.57608,510.0
3096,2576916,0,2.576916,509.0
3097,2577748,0,2.577748,512.0
3098,2578580,0,2.57858,510.0
3099,2579416,0,2.579416,515.0
3100,2580248,0,2.580248,511.0
3101,2581080,0,2.58108,510.0
3102,2581916,0,2.581916,508.0
3103,2582748,0,2.582748,504.0
3104,2583580,0,2.58358,508.0
3105,2584416,0,2.584416,510.0
3106,2585248,0,2.585248,508.0
3107,2586080,0,2.58608,511.0
3108,2586916,0,2.586916,510.0
3109,2587748,0,2.587748,512.0
3110,2588580,0,2.58858,513.0
3111,2589416,0,2.589416,507.0
3112,2590248,0,2.590248,509.0
3113,2591080,0,2.59108,514.0
3114,2591916,0,2.591916,510.0
3115,2592748,0,2.592748,512.0
3116,2593580,0,2.59358,508.0
3117,2594416,0,2.594416,511.0
3118,2595248,0,2.595248,514.0
3119,2596080,0,2.59608,507.0
3120,2596916,0,2.596916,511.0
3121,2597748,0,2.597748,508.0
3122,2598580,0,2.59858,504.0
3123,2599416,0,2.599416,512.0
3124,2600248,0,2.600248,504.0
3125,2601084,0,2.601084,509.0
3126,2601916,0,2.601916,511.0
3127,2602748,0,2.602748,510.0
3128,2603584,0,2.603584,513.0
3129,2604416,0,2.604416,515.0
3130,2605248,0,2.605248,509.0
3131,2606088,0,2.606088,512.0
3132,2606916,0,2.606916,508.0
3133,2607748,0,2.607748,507.0
3134,2608584,0,2.608584,512.0
3135,2609416,0,2.609416,507.0
3136,2610248,0,2.610248,510.0
3137,2611084,0,2.611084,510.0
3138,2611916,0,2.611916,510.0
3139,2612748,0,2.612748,512.0
3140,2613584,0,2.613584,510.0
3141,2614416,0,2.614416,509.0
3142,2615248,0,2.615248,507.0
3143,2616084,0,2.616084,508.0
3144,2616916,0,2.616916,510.0
3145,2617748,0,2.617748,513.0
3146,2618584,0,2.618584,510.0
3147,2619416,0,2.619416,509.0
3148,2620248,0,2.620248,508.0
3149,2621084,0,2.621084,511.0
3150,2621916,0,2.621916,512.0
3151,2622748,0,2.622748,508.0
3152,2623584,0,2.623584,510.0
3153,2624416,0,2.624416,512.0
3154,2625248,0,2.625248,509.0
3155,2626084,0,2.626084,511.0
3156,2626916,0,2.626916,506.0
3157,2627752,0,2.627752,512.0
3158,2628584,0,2.628584,514.0
3159,2629416,0,2.629416,507.0
3160,2630252,0,2.630252,512.0
3161,2631084,0,2.631084,509.0
3162,2631916,0,2.631916,508.0
3163,2632752,0,2.632752,511.0
3164,2633584,0,2.633584,510.0
3165,2634416,0,2.634416,513.0
3166,2635252,0,2.635252,512.0
3167,2636084,0,2.636084,507.0
3168,2636916,0,2.636916,512.0
3169,2637752,0,2.637752,513.0
3170,2638584,0,2.638584,508.0
3171,2639416,0,2.639416,513.0
3172,2640252,0,2.640252,508.0
3173,2641084,0,2.641084,514.0
3174,2641916,0,2.641916,504.0
3175,2642752,0,2.642752,507.0
3176,2643584,0,2.643584,509.0
3177,2644416,0,2.644416,509.0
3178,2645252,0,2.645252,508.0
3179,2646084,0,2.646084,507.0
3180,2646916,0,2.646916,507.0
3181,2647752,0,2.647752,513.0
3182,2648584,0,2.648584,511.0
3183,2649416,0,2.649416,510.0
3184,2650252,0,2.650252,511.0
3185,2651084,0,2.651084,512.0
3186,2651916,0,2.651916,509.0
3187,2652752,0,2.652752,510.0
3188,2653584,0,2.653584,504.0
3189,2654420,0,2.65442,512.0
3190,2655252,0,2.655252,514.0
3191,2656084,0,2.656084,510.0
3192,2656920,0,2.65692,509.0
3193,2657752,0,2.657752,509.0
3194,2658584,0,2.658584,510.0
3195,2659420,0,2.65942,512.0
3196,2660252,0,2.660252,508.0
3197,2661084,0,2.661084,510.0
3198,2661920,0,2.66192,512.0
3199,2662752,0,2.662752,508.0
3200,2663584,0,2.663584,513.0
3201,2664420,0,2.66442,512.0
3202,2665252,0,2.665252,509.0
3203,2666084,0,2.666084,511.0
3204,2666920,0,2.66692,507.0
3205,2667752,0,2.667752,509.0
3206,2668584,0,2.668584,512.0
3207,2669420,0,2.66942,502.0
3208,2670252,0,2.670252,512.0
3209,2671084,0,2.671084,514.0
3210,2671920,0,2.67192,513.0
3211,2672752,0,2.672752,513.0
3212,2673584,0,2.673584,506.0
3213,2674420,0,2.67442,510.0
3214,2675252,0,2.675252,512.0
3215,2676084,0,2.676084,509.0
3216,2676920,0,2.67692,506.0
3217,2677752,0,2.677752,512.0
3218,2678588,0,2.678588,512.0
3219,2679420,0,2.67942,514.0
3220,2680252,0,2.680252,511.0
3221,2681088,0,2.681088,512.0
3222,2681920,0,2.68192,508.0
3223,2682752,0,2.682752,507.0
3224,2683588,0,2.683588,509.0
3225,2684420,0,2.68442,507.0
3226,2685252,0,2.685252,506.0
3227,2686088,0,2.686088,511.0
3228,2686920,0,2.68692,510.0
3229,2687752,0,2.687752,512.0
3230,2688588,0,2.688588,511.0
3231,2689420,0,2.68942,511.0
3232,2690252,0,2.690252,515.0
3233,2691088,0,2.691088,511.0
3234,2691920,0,2.69192,507.0
3235,2692752,0,2.692752,511.0
3236,2693588,0,2.693588,507.0
3237,2694420,0,2.69442,512.0
3238,2695252,0,2.695252,512.0
3239,2696088,0,2.696088,509.0
3240,2696920,0,2.69692,510.0
3241,2697752,0,2.697752,509.0
3242,2698588,0,2.698588,509.0
3243,2699420,0,2.69942,510.0
3244,2700252,0,2.700252,507.0
3245,2701088,0,2.701088,513.0
3246,2701920,0,2.70192,512.0
3247,2702752,0,2.702752,507.0
3248,2703588,0,2.703588,512.0
3249,2704420,0,2.70442,514.0
3250,2705252,0,2.705252,511.0
3251,2706088,0,2.706088,511.0
3252,2706920,0,2.70692,509.0
3253,2707756,0,2.707756,507.0
3254,2708588,0,2.708588,510.0
3255,2709420,0,2.70942,507.0
3256,2710256,0,2.710256,509.0
3257,2711088,0,2.711088,510.0
3258,2711920,0,2.71192,510.0
3259,2712756,0,2.712756,510.0
3260,2713588,0,2.713588,506.0
3261,2714420,0,2.71442,513.0
3262,2715256,0,2.715256,510.0
3263,2716088,0,2.716088,509.0
3264,2716920,0,2.71692,513.0
3265,2717756,0,2.717756,512.0
3266,2718588,0,2.718588,511.0
3267,2719420,0,2.71942,512.0
3268,2720256,0,2.720256,511.0
3269,2721088,0,2.721088,513.0
3270,2721920,0,2.72192,512.0
3271,2722756,0,2.722756,505.0
3272,2723588,0,2.723588,507.0
3273,2724420,0,2.72442,509.0
3274,2725256,0,2.725256,508.0
3275,2726088,0,2.726088,511.0
3276,2726920,0,2.72692,508.0
3277,2727756,0,2.727756,509.0
3278,2728588,0,2.728588,513.0
3279,2729420,0,2.72942,510.0
3280,2730256,0,2.730256,513.0
3281,2731088,0,2.731088,508.0
3282,2731924,0,2.731924,509.0
3283,2732756,0,2.732756,510.0
3284,2733588,0,2.733588,508.0
3285,2734424,0,2.734424,512.0
3286,2735256,0,2.735256,511.0
3287,2736088,0,2.736088,510.0
3288,2736924,0,2.736924,513.0
3289,2737756,0,2.737756,513.0
3290,2738588,0,2.738588,509.0
3291,2739424,0,2.739424,513.0
3292,2740256,0,2.740256,507.0
3293,2741088,0,2.741088,514.0
3294,2741924,0,2.741924,512.0
3295,2742756,0,2.742756,506.0
3296,2743588,0,2.743588,510.0
3297,2744424,0,2.744424,513.0
3298,2745256,0,2.745256,510.0
3299,2746088,0,2.746088,506.0
3300,2746924,0,2.746924,507.0
3301,2747756,0,2.747756,512.0
3302,2748588,0,2.748588,513.0
3303,2749424,0,2.749424,507.0
3304,2750256,0,2.750256,512.0
3305,2751088,0,2.751088,515.0
3306,2751924,0,2.751924,511.0
3307,2752756,0,2.752756,513.0
3308,2753588,0,2.753588,504.0
3309,2754424,0,2.754424,512.0
3310,2755256,0,2.755256,511.0
3311,2756088,0,2.756088,509.0
3312,2756924,0,2.756924,511.0
3313,2757756,0,2.757756,509.0
3314,2758588,0,2.758588,507.0
3315,2759424,0,2.759424,510.0
3316,2760256,0,2.760256,510.0
3317,2761092,0,2.761092,510.0
3318,2761924,0,2.761924,510.0
3319,2762760,0,2.76276,512.0
3320,2763592,0,2.763592,512.0
3321,2764424,0,2.764424,514.0
3322,2765256,0,2.765256,505.0
3323,2766092,0,2.766092,508.0
3324,2766924,0,2.766924,509.0
3325,2767756,0,2.767756,513.0
3326,2768592,0,2.768592,511.0
3327,2769424,0,2.769424,504.0
3328,2770256,0,2.770256,512.0
3329,2771092,0,2.771092,510.0
3330,2771924,0,2.771924,509.0
3331,2772756,0,2.772756,510.0
3332,2773592,0,2.773592,506.0
3333,2774424,0,2.774424,510.0
3334,2775256,0,2.775256,510.0
3335,2776092,0,2.776092,509.0
3336,2776924,0,2.776924,508.0
3337,2777756,0,2.777756,513.0
3338,2778592,0,2.778592,510.0
3339,2779424,0,2.779424,512.0
3340,2780256,0,2.780256,508.0
3341,2781092,0,2.781092,513.0
3342,2781924,0,2.781924,512.0
3343,2782756,0,2.782756,508.0
3344,2783592,0,2.783592,510.0
3345,2784424,0,2.784424,508.0
3346,2785256,0,2.785256,511.0
3347,2786092,0,2.786092,509.0
3348,2786924,0,2.786924,508.0
3349,2787760,0,2.78776,513.0
3350,2788592,0,2.788592,513.0
3351,2789424,0,2.789424,507.0
3352,2790260,0,2.79026,510.0
3353,2791092,0,2.791092,510.0
3354,2791924,0,2.791924,507.0
3355,2792760,0,2.79276,511.0
3356,2793592,0,2.793592,507.0
3357,2794424,0,2.794424,511.0
3358,2795260,0,2.79526,510.0
3359,2796092,0,2.796092,508.0
3360,2796924,0,2.796924,510.0
3361,2797760,0,2.79776,512.0
3362,2798592,0,2.798592,510.0
3363,2799424,0,2.799424,509.0
3364,2800260,0,2.80026,508.0
3365,2801092,0,2.801092,513.0
3366,2801924,0,2.801924,513.0
3367,2802760,0,2.80276,510.0
3368,2803592,0,2.803592,514.0
3369,2804424,0,2.804424,513.0
3370,2805260,0,2.80526,509.0
3371,2806092,0,2.806092,511.0
3372,2806924,0,2.806924,504.0
3373,2807760,0,2.80776,509.0
3374,2808592,0,2.808592,510.0
3375,2809424,0,2.809424,506.0
3376,2810260,0,2.81026,511.0
3377,2811092,0,2.811092,512.0
3378,2811924,0,2.811924,513.0
3379,2812760,0,2.81276,512.0
3380,2813592,0,2.813592,508.0
3381,2814428,0,2.814428,511.0
3382,2815260,0,2.81526,511.0
3383,2816092,0,2.816092,508.0
3384,2816928,0,2.816928,510.0
3385,2817760,0,2.81776,513.0
3386,2818592,0,2.818592,509.0
3387,2819428,0,2.819428,511.0
3388,2820260,0,2.82026,506.0
3389,2821092,0,2.821092,512.0
3390,2821928,0,2.821928,513.0
3391,2822760,0,2.82276,507.0
3392,2823592,0,2.823592,510.0
3393,2824428,0,2.824428,513.0
3394,2825260,0,2.82526,510.0
3395,2826092,0,2.826092,511.0
3396,2826928,0,2.826928,508.0
3397,2827760,0,2.82776,511.0
3398,2828592,0,2.828592,512.0
3399,2829428,0,2.829428,511.0
3400,2830260,0,2.83026,510.0
3401,2831092,0,2.831092,514.0
3402,2831928,0,2.831928,505.0
3403,2832760,0,2.83276,510.0
3404,2833592,0,2.833592,507.0
3405,2834428,0,2.834428,509.0
3406,2835260,0,2.83526,510.0
3407,2836092,0,2.836092,507.0
3408,2836928,0,2.836928,513.0
3409,2837760,0,2.83776,511.0
3410,2838592,0,2.838592,511.0
3411,2839428,0,2.839428,512.0
3412,2840260,0,2.84026,507.0
3413,2841096,0,2.841096,510.0
3414,2841928,0,2.841928,508.0
3415,2842760,0,2.84276,507.0
3416,2843596,0,2.843596,509.0
3417,2844428,0,2.844428,512.0
3418,2845260,0,2.84526,509.0
3419,2846096,0,2.846096,510.0
3420,2846928,0,2.846928,508.0
3421,2847760,0,2.84776,509.0
3422,2848596,0,2.848596,514.0
3423,2849428,0,2.849428,508.0
3424,2850260,0,2.85026,512.0
3425,2851096,0,2.851096,509.0
3426,2851928,0,2.851928,509.0
3427,2852760,0,2.85276,511.0
3428,2853596,0,2.853596,506.0
3429,2854428,0,2.854428,513.0
3430,2855260,0,2.85526,513.0
3431,2856096,0,2.856096,508.0
3432,2856928,0,2.856928,511.0
3433,2857760,0,2.85776,512.0
3434,2858596,0,2.858596,508.0
3435,2859428,0,2.859428,510.0
3436,2860260,0,2.86026,505.0
3437,2861096,0,2.861096,507.0
3438,2861928,0,2.861928,512.0
3439,2862760,0,2.86276,508.0
3440,2863596,0,2.863596,514.0
3441,2864428,0,2.864428,514.0
3442,2865260,0,2.86526,507.0
3443,2866096,0,2.866096,511.0
3444,2866928,0,2.866928,509.0
3445,2867764,0,2.867764,511.0
3446,2868596,0,2.868596,506.0
3447,2869428,0,2.869428,508.0
3448,2870264,0,2.870264,514.0
3449,2871096,0,2.871096,513.0
3450,2871928,0,2.871928,510.0
3451,2872764,0,2.872764,512.0
3452,2873596,0,2.873596,507.0
3453,2874428,0,2.874428,508.0
3454,2875264,0,2.875264,509.0
3455,2876096,0,2.876096,507.0
3456,2876928,0,2.876928,508.0
3457,2877764,0,2.877764,511.0
3458,2878596,0,2.878596,508.0
3459,2879428,0,2.879428,512.0
3460,2880264,0,2.880264,511.0
3461,2881096,0,2.881096,513.0
3462,2881928,0,2.881928,514.0
3463,2882764,0,2.882764,510.0
3464,2883596,0,2.883596,509.0
3465,2884428,0,2.884428,504.0
3466,2885264,0,2.885264,509.0
3467,2886096,0,2.886096,512.0
3468,2886928,0,2.886928,512.0
3469,2887764,0,2.887764,513.0
3470,2888596,0,2.888596,512.0
3471,2889428,0,2.889428,511.0
3472,2890264,0,2.890264,512.0
3473,2891096,0,2.891096,509.0
3474,2891932,0,2.891932,505.0
3475,2892764,0,2.892764,509.0
3476,2893596,0,2.893596,507.0
3477,2894432,0,2.894432,514.0
3478,2895264,0,2.895264,515.0
3479,2896096,0,2.896096,509.0
3480,2896932,0,2.896932,511.0
3481,2897764,0,2.897764,510.0
3482,2898596,0,2.898596,507.0
3483,2899432,0,2.899432,503.0
3484,2900264,0,2.900264,501.0
3485,2901096,0,2.901096,504.0
3486,2901932,0,2.901932,506.0
3487,2902764,0,2.902764,507.0
3488,2903596,0,2.903596,510.0
3489,2904432,0,2.904432,513.0
3490,2905264,0,2.905264,511.0
3491,2906096,0,2.906096,515.0
3492,2906932,0,2.906932,506.0
3493,2907764,0,2.907764,513.0
3494,2908596,0,2.908596,512.0
3495,2909432,0,2.909432,511.0
3496,2910264,0,2.910264,513.0
3497,2911096,0,2.911096,509.0
3498,2911932,0,2.911932,512.0
3499,2912764,0,2.912764,511.0
3500,2913596,0,2.913596,511.0
3501,2914432,0,2.914432,510.0
3502,2915264,0,2.915264,508.0
3503,2916096,0,2.916096,507.0
3504,2916932,0,2.916932,513.0
3505,2917764,0,2.917764,513.0
3506,2918600,0,2.9186,511.0
3507,2919432,0,2.919432,513.0
3508,2920264,0,2.920264,512.0
3509,2921100,0,2.9211,513.0
3510,2921932,0,2.921932,514.0
3511,2922764,0,2.922764,509.0
3512,2923600,0,2.9236,510.0
3513,2924432,0,2.924432,509.0
3514,2925264,0,2.925264,509.0
3515,2926100,0,2.9261,510.0
3516,2926932,0,2.926932,510.0
3517,2927764,0,2.927764,507.0
3518,2928600,0,2.9286,511.0
3519,2929432,0,2.929432,507.0
3520,2930264,0,2.930264,511.0
3521,2931100,0,2.9311,514.0
3522,2931932,0,2.931932,509.0
3523,2932764,0,2.932764,512.0
3524,2933600,0,2.9336,510.0
3525,2934432,0,2.934432,510.0
3526,2935264,0,2.935264,507.0
3527,2936100,0,2.9361,506.0
3528,2936932,0,2.936932,511.0
3529,2937764,0,2.937764,512.0
3530,2938600,0,2.9386,510.0
3531,2939432,0,2.939432,513.0
3532,2940264,0,2.940264,505.0
3533,2941100,0,2.9411,510.0
3534,2941932,0,2.941932,512.0
3535,2942764,0,2.942764,506.0
3536,2943600,0,2.9436,511.0
3537,2944432,0,2.944432,512.0
3538,2945268,0,2.945268,510.0
3539,2946100,0,2.9461,513.0
3540,2946932,0,2.946932,509.0
3541,2947768,0,2.947768,511.0
3542,2948600,0,2.9486,511.0
3543,2949432,0,2.949432,507.0
3544,2950268,0,2.950268,508.0
3545,2951100,0,2.9511,510.0
3546,2951932,0,2.951932,506.0
3547,2952768,0,2.952768,510.0
3548,2953600,0,2.9536,508.0
3549,2954432,0,2.954432,512.0
3550,2955272,0,2.955272,510.0
3551,2956100,0,2.9561,508.0
3552,2956932,0,2.956932,510.0
3553,2957768,0,2.957768,509.0
3554,2958600,0,2.9586,508.0
3555,2959432,0,2.959432,511.0
3556,2960268,0,2.960268,508.0
3557,2961100,0,2.9611,508.0
3558,2961932,0,2.961932,513.0
3559,2962768,0,2.962768,510.0
3560,2963600,0,2.9636,510.0
3561,2964432,0,2.964432,509.0
3562,2965268,0,2.965268,507.0
3563,2966100,0,2.9661,509.0
3564,2966932,0,2.966932,508.0
3565,2967768,0,2.967768,512.0
3566,2968600,0,2.9686,511.0
3567,2969432,0,2.969432,508.0
3568,2970268,0,2.970268,511.0
3569,2971100,0,2.9711,514.0
3570,2971932,0,2.971932,510.0
3571,2972768,0,2.972768,513.0
3572,2973600,0,2.9736,509.0
3573,2974436,0,2.974436,509.0
3574,2975268,0,2.975268,508.0
3575,2976100,0,2.9761,507.0
3576,2976936,0,2.976936,510.0
3577,2977768,0,2.977768,514.0
3578,2978600,0,2.9786,509.0
3579,2979436,0,2.979436,513.0
3580,2980268,0,2.980268,509.0
3581,2981100,0,2.9811,512.0
3582,2981936,0,2.981936,507.0
3583,2982768,0,2.982768,506.0
3584,2983600,0,2.9836,510.0
3585,2984436,0,2.984436,510.0
3586,2985268,0,2.985268,509.0
3587,2986100,0,2.9861,512.0
3588,2986936,0,2.986936,510.0
3589,2987768,0,2.987768,511.0
3590,2988600,0,2.9886,511.0
3591,2989436,0,2.989436,506.0
3592,2990268,0,2.990268,512.0
3593,2991100,0,2.9911,510.0
3594,2991936,0,2.991936,507.0
3595,2992768,0,2.992768,510.0
3596,2993600,0,2.9936,507.0
3597,2994436,0,2.994436,511.0
3598,2995268,0,2.995268,513.0
3599,2996100,0,2.9961,510.0
3600,2996936,0,2.996936,509.0
3601,2997768,0,2.997768,511.0
3602,2998600,0,2.9986,508.0
3603,2999436,0,2.999436,505.0
3604,3000268,0,3.000268,507.0
3605,3001104,0,3.001104,509.0
3606,3001936,0,3.001936,513.0
3607,3002768,0,3.002768,507.0
3608,3003604,0,3.003604,512.0
3609,3004436,0,3.004436,511.0
3610,3005268,0,3.005268,506.0
3611,3006104,0,3.006104,512.0
3612,3006936,0,3.006936,505.0
3613,3007768,0,3.007768,512.0
3614,3008604,0,3.008604,512.0
3615,3009436,0,3.009436,509.0
3616,3010268,0,3.010268,513.0
3617,3011104,0,3.011104,515.0
3618,3011936,0,3.011936,511.0
3619,3012768,0,3.012768,512.0
3620,3013604,0,3.013604,507.0
3621,3014436,0,3.014436,513.0
3622,3015268,0,3.015268,511.0
3623,3016104,0,3.016104,506.0
3624,3016936,0,3.016936,510.0
3625,3017768,0,3.017768,510.0
3626,3018604,0,3.018604,508.0
3627,3019436,0,3.019436,512.0
3628,3020268,0,3.020268,505.0
3629,3021104,0,3.021104,514.0
3630,3021936,0,3.021936,514.0
3631,3022768,0,3.022768,511.0
3632,3023604,0,3.023604,512.0
3633,3024436,0,3.024436,510.0
3634,3025268,0,3.025268,509.0
3635,3026104,0,3.026104,511.0
3636,3026936,0,3.026936,509.0
3637,3027772,0,3.027772,509.0
3638,3028604,0,3.028604,512.0
3639,3029436,0,3.029436,509.0
3640,3030272,0,3.030272,513.0
3641,3031104,0,3.031104,510.0
3642,3031936,0,3.031936,507.0
3643,3032772,0,3.032772,511.0
3644,3033604,0,3.033604,505.0
3645,3034436,0,3.034436,510.0
3646,3035272,0,3.035272,508.0
3647,3036104,0,3.036104,508.0
3648,3036936,0,3.036936,515.0
3649,3037772,0,3.037772,513.0
3650,3038604,0,3.038604,509.0
3651,3039436,0,3.039436,512.0
3652,3040272,0,3.040272,508.0
3653,3041104,0,3.041104,513.0
3654,3041936,0,3.041936,512.0
3655,3042772,0,3.042772,509.0
3656,3043604,0,3.043604,507.0
3657,3044436,0,3.044436,512.0
3658,3045272,0,3.045272,509.0
3659,3046104,0,3.046104,513.0
3660,3046936,0,3.046936,509.0
3661,3047772,0,3.047772,512.0
3662,3048604,0,3.048604,516.0
3663,3049436,0,3.049436,510.0
3664,3050272,0,3.050272,510.0
3665,3051104,0,3.051104,507.0
3666,3051936,0,3.051936,509.0
3667,3052772,0,3.052772,509.0
3668,3053604,0,3.053604,508.0
3669,3054440,0,3.05444,513.0
3670,3055272,0,3.055272,510.0
3671,3056104,0,3.056104,509.0
3672,3056940,0,3.05694,513.0
3673,3057772,0,3.057772,510.0
3674,3058604,0,3.058604,507.0
3675,3059440,0,3.05944,509.0
3676,3060272,0,3.060272,509.0
3677,3061104,0,3.061104,510.0
3678,3061940,0,3.06194,511.0
3679,3062772,0,3.062772,509.0
3680,3063604,0,3.063604,515.0
3681,3064440,0,3.06444,513.0
3682,3065272,0,3.065272,510.0
3683,3066104,0,3.066104,507.0
3684,3066940,0,3.06694,505.0
3685,3067772,0,3.067772,513.0
3686,3068604,0,3.068604,511.0
3687,3069440,0,3.06944,510.0
3688,3070272,0,3.070272,509.0
3689,3071104,0,3.071104,514.0
3690,3071940,0,3.07194,511.0
3691,3072772,0,3.072772,512.0
3692,3073604,0,3.073604,506.0
3693,3074440,0,3.07444,510.0
3694,3075272,0,3.075272,514.0
3695,3076104,0,3.076104,506.0
3696,3076940,0,3.07694,511.0
3697,3077772,0,3.077772,511.0
3698,3078604,0,3.078604,508.0
3699,3079440,0,3.07944,512.0
3700,3080272,0,3.080272,506.0
3701,3081108,0,3.081108,508.0
3702,3081940,0,3.08194,509.0
3703,3082772,0,3.082772,510.0
3704,3083608,0,3.083608,512.0
3705,3084440,0,3.08444,510.0
3706,3085272,0,3.085272,510.0
3707,3086108,0,3.086108,513.0
3708,3086940,0,3.08694,510.0
3709,3087772,0,3.087772,513.0
3710,3088608,0,3.088608,513.0
3711,3089440,0,3.08944,507.0
3712,3090272,0,3.090272,511.0
3713,3091108,0,3.091108,512.0
3714,3091940,0,3.09194,510.0
3715,3092772,0,3.092772,514.0
3716,3093608,0,3.093608,506.0
3717,3094440,0,3.09444,512.0
3718,3095272,0,3.095272,509.0
3719,3096108,0,3.096108,511.0
3720,3096940,0,3.09694,510.0
3721,3097772,0,3.097772,512.0
3722,3098608,0,3.098608,508.0
3723,3099440,0,3.09944,508.0
3724,3100272,0,3.100272,506.0
3725,3101108,0,3.101108,512.0
3726,3101940,0,3.10194,511.0
3727,3102772,0,3.102772,508.0
3728,3103608,0,3.103608,511.0
3729,3104440,0,3.10444,511.0
3730,3105272,0,3.105272,509.0
3731,3106108,0,3.106108,510.0
3732,3106940,0,3.10694,505.0
3733,3107776,0,3.107776,512.0
3734,3108608,0,3.108608,512.0
3735,3109440,0,3.10944,510.0
3736,3110276,0,3.110276,512.0
3737,3111108,0,3.111108,511.0
3738,3111944,0,3.111944,506.0
3739,3112776,0,3.112776,510.0
3740,3113608,0,3.113608,507.0
3741,3114440,0,3.11444,513.0
3742,3115276,0,3.115276,511.0
3743,3116108,0,3.116108,507.0
3744,3116940,0,3.11694,513.0
3745,3117776,0,3.117776,512.0
3746,3118608,0,3.118608,506.0
3747,3119440,0,3.11944,512.0
3748,3120276,0,3.120276,508.0
3749,3121108,0,3.121108,513.0
3750,3121940,0,3.12194,510.0
3751,3122776,0,3.122776,509.0
3752,3123608,0,3.123608,509.0
3753,3124440,0,3.12444,513.0
3754,3125276,0,3.125276,509.0
3755,3126108,0,3.126108,510.0
3756,3126940,0,3.12694,507.0
3757,3127776,0,3.127776,511.0
3758,3128608,0,3.128608,513.0
3759,3129440,0,3.12944,509.0
3760,3130276,0,3.130276,510.0
3761,3131108,0,3.131108,511.0
3762,3131944,0,3.131944,508.0
3763,3132776,0,3.132776,508.0
3764,3133608,0,3.133608,506.0
3765,3134444,0,3.134444,514.0
3766,3135276,0,3.135276,511.0
3767,3136108,0,3.136108,509.0
3768,3136944,0,3.136944,511.0
3769,3137776,0,3.137776,511.0
3770,3138608,0,3.138608,508.0
3771,3139444,0,3.139444,510.0
3772,3140276,0,3.140276,507.0
3773,3141108,0,3.141108,510.0
3774,3141944,0,3.141944,507.0
3775,3142776,0,3.142776,507.0
3776,3143608,0,3.143608,512.0
3777,3144444,0,3.144444,512.0
3778,3145276,0,3.145276,509.0
3779,3146108,0,3.146108,511.0
3780,3146944,0,3.146944,509.0
3781,3147776,0,3.147776,511.0
3782,3148608,0,3.148608,510.0
3783,3149444,0,3.149444,507.0
3784,3150276,0,3.150276,511.0
3785,3151108,0,3.151108,509.0
3786,3151944,0,3.151944,507.0
3787,3152776,0,3.152776,511.0
3788,3153608,0,3.153608,507.0
3789,3154444,0,3.154444,513.0
3790,3155276,0,3.155276,515.0
3791,3156108,0,3.156108,509.0
3792,3156944,0,3.156944,507.0
3793,3157776,0,3.157776,512.0
3794,3158608,0,3.158608,510.0
3795,3159444,0,3.159444,514.0
3796,3160276,0,3.160276,509.0
3797,3161112,0,3.161112,509.0
3798,3161944,0,3.161944,512.0
3799,3162776,0,3.162776,510.0
3800,3163612,0,3.163612,515.0
3801,3164444,0,3.164444,514.0
3802,3165276,0,3.165276,507.0
3803,3166112,0,3.166112,509.0
3804,3166944,0,3.166944,500.0
3805,3167776,0,3.167776,509.0
3806,3168612,0,3.168612,512.0
3807,3169444,0,3.169444,509.0
3808,3170276,0,3.170276,512.0
3809,3171112,0,3.171112,512.0
3810,3171944,0,3.171944,505.0
3811,3172776,0,3.172776,511.0
3812,3173612,0,3.173612,511.0
3813,3174444,0,3.174444,514.0
3814,3175276,0,3.175276,513.0
3815,3176112,0,3.176112,509.0
3816,3176944,0,3.176944,513.0
3817,3177776,0,3.177776,512.0
3818,3178612,0,3.178612,509.0
3819,3179444,0,3.179444,512.0
3820,3180276,0,3.180276,510.0
3821,3181112,0,3.181112,512.0
3822,3181944,0,3.181944,514.0
3823,3182776,0,3.182776,503.0
3824,3183612,0,3.183612,510.0
3825,3184444,0,3.184444,513.0
3826,3185280,0,3.18528,507.0
3827,3186112,0,3.186112,512.0
3828,3186944,0,3.186944,510.0
3829,3187780,0,3.18778,510.0
3830,3188612,0,3.188612,515.0
3831,3189444,0,3.189444,508.0
3832,3190280,0,3.19028,513.0
3833,3191112,0,3.191112,510.0
3834,3191944,0,3.191944,509.0
3835,3192780,0,3.19278,511.0
3836,3193612,0,3.193612,507.0
3837,3194444,0,3.194444,510.0
3838,3195280,0,3.19528,510.0
3839,3196112,0,3.196112,509.0
3840,3196944,0,3.196944,511.0
3841,3197780,0,3.19778,509.0
3842,3198612,0,3.198612,512.0
3843,3199444,0,3.199444,513.0
3844,3200280,0,3.20028,507.0
3845,3201112,0,3.201112,511.0
3846,3201944,0,3.201944,513.0
3847,3202780,0,3.20278,501.0
3848,3203612,0,3.203612,513.0
3849,3204444,0,3.204444,515.0
3850,3205280,0,3.20528,510.0
3851,3206112,0,3.206112,513.0
3852,3206944,0,3.206944,508.0
3853,3207780,0,3.20778,511.0
3854,3208612,0,3.208612,513.0
3855,3209444,0,3.209444,507.0
3856,3210280,0,3.21028,512.0
3857,3211112,0,3.211112,510.0
3858,3211948,0,3.211948,509.0
3859,3212780,0,3.21278,508.0
3860,3213612,0,3.213612,507.0
3861,3214448,0,3.214448,511.0
3862,3215280,0,3.21528,511.0
3863,3216112,0,3.216112,505.0
3864,3216948,0,3.216948,508.0
3865,3217780,0,3.21778,510.0
3866,3218612,0,3.218612,507.0
3867,3219448,0,3.219448,511.0
3868,3220280,0,3.22028,507.0
3869,3221112,0,3.221112,512.0
3870,3221948,0,3.221948,514.0
3871,3222780,0,3.22278,510.0
3872,3223612,0,3.223612,514.0
3873,3224448,0,3.224448,513.0
3874,3225280,0,3.22528,510.0
3875,3226112,0,3.226112,512.0
3876,3226948,0,3.226948,508.0
3877,3227780,0,3.22778,510.0
3878,3228612,0,3.228612,511.0
3879,3229448,0,3.229448,507.0
3880,3230280,0,3.23028,512.0
3881,3231112,0,3.231112,513.0
3882,3231948,0,3.231948,511.0
3883,3232780,0,3.23278,510.0
3884,3233612,0,3.233612,504.0
3885,3234448,0,3.234448,509.0
3886,3235280,0,3.23528,511.0
3887,3236112,0,3.236112,507.0
3888,3236948,0,3.236948,510.0
3889,3237780,0,3.23778,510.0
3890,3238612,0,3.238612,508.0
3891,3239448,0,3.239448,512.0
3892,3240280,0,3.24028,509.0
3893,3241116,0,3.241116,511.0
3894,3241948,0,3.241948,512.0
3895,3242780,0,3.24278,506.0
3896,3243616,0,3.243616,510.0
3897,3244448,0,3.244448,511.0
3898,3245280,0,3.24528,510.0
3899,3246116,0,3.246116,515.0
3900,3246948,0,3.246948,509.0
3901,3247780,0,3.24778,514.0
3902,3248616,0,3.248616,512.0
3903,3249448,0,3.249448,502.0
3904,3250280,0,3.25028,510.0
3905,3251116,0,3.251116,511.0
3906,3251948,0,3.251948,509.0
3907,3252780,0,3.25278,509.0
3908,3253616,0,3.253616,506.0
3909,3254448,0,3.254448,511.0
3910,3255280,0,3.25528,511.0
3911,3256116,0,3.256116,510.0
3912,3256948,0,3.256948,514.0
3913,3257780,0,3.25778,513.0
3914,3258616,0,3.258616,509.0
3915,3259448,0,3.259448,511.0
3916,3260280,0,3.26028,506.0
3917,3261116,0,3.261116,509.0
3918,3261948,0,3.261948,509.0
3919,3262780,0,3.26278,507.0
3920,3263616,0,3.263616,513.0
3921,3264448,0,3.264448,511.0
3922,3265280,0,3.26528,513.0
3923,3266116,0,3.266116,513.0
3924,3266948,0,3.266948,506.0
3925,3267784,0,3.267784,511.0
3926,3268616,0,3.268616,509.0
3927,3269448,0,3.269448,508.0
3928,3270284,0,3.270284,510.0
3929,3271116,0,3.271116,513.0
3930,3271948,0,3.271948,510.0
3931,3272784,0,3.272784,511.0
3932,3273616,0,3.273616,506.0
3933,3274448,0,3.274448,511.0
3934,3275284,0,3.275284,511.0
3935,3276116,0,3.276116,507.0
3936,3276948,0,3.276948,513.0
3937,3277784,0,3.277784,514.0
3938,3278616,0,3.278616,508.0
3939,3279448,0,3.279448,507.0
3940,3280284,0,3.280284,506.0
3941,3281116,0,3.281116,512.0
3942,3281948,0,3.281948,514.0
3943,3282784,0,3.282784,507.0
3944,3283616,0,3.283616,510.0
3945,3284448,0,3.284448,510.0
3946,3285284,0,3.285284,509.0
3947,3286116,0,3.286116,512.0
3948,3286948,0,3.286948,509.0
3949,3287784,0,3.287784,510.0
3950,3288616,0,3.288616,512.0
3951,3289448,0,3.289448,508.0
3952,3290284,0,3.290284,512.0
3953,3291116,0,3.291116,513.0
3954,3291948,0,3.291948,509.0
3955,3292784,0,3.292784,512.0
3956,3293616,0,3.293616,507.0
3957,3294452,0,3.294452,510.0
3958,3295284,0,3.295284,508.0
3959,3296116,0,3.296116,510.0
3960,3296952,0,3.296952,511.0
3961,3297784,0,3.297784,511.0
3962,3298616,0,3.298616,507.0
3963,3299452,0,3.299452,509.0
3964,3300284,0,3.300284,508.0
3965,3301116,0,3.301116,512.0
3966,3301952,0,3.301952,510.0
3967,3302784,0,3.302784,508.0
3968,3303616,0,3.303616,512.0
3969,3304456,0,3.304456,512.0
3970,3305284,0,3.305284,510.0
3971,3306116,0,3.306116,512.0
3972,3306952,0,3.306952,508.0
3973,3307784,0,3.307784,511.0
3974,3308616,0,3.308616,511.0
3975,3309452,0,3.309452,508.0
3976,3310284,0,3.310284,510.0
3977,3311116,0,3.311116,514.0
3978,3311952,0,3.311952,512.0
3979,3312784,0,3.312784,514.0
3980,3313616,0,3.313616,509.0
3981,3314452,0,3.314452,511.0
3982,3315284,0,3.315284,511.0
3983,3316116,0,3.316116,506.0
3984,3316952,0,3.316952,512.0
3985,3317784,0,3.317784,511.0
3986,3318620,0,3.31862,507.0
3987,3319452,0,3.319452,513.0
3988,3320284,0,3.320284,509.0
3989,3321120,0,3.32112,511.0
3990,3321952,0,3.321952,510.0
3991,3322784,0,3.322784,506.0
3992,3323620,0,3.32362,510.0
3993,3324452,0,3.324452,511.0
3994,3325284,0,3.325284,504.0
3995,3326120,0,3.32612,510.0
3996,3326952,0,3.326952,509.0
3997,3327784,0,3.327784,512.0
3998,3328620,0,3.32862,511.0
3999,3329452,0,3.329452,507.0
4000,3330284,0,3.330284,514.0
4001,3331120,0,3.33112,511.0
4002,3331952,0,3.331952,510.0
4003,3332784,0,3.332784,510.0
4004,3333620,0,3.33362,506.0
4005,3334452,0,3.334452,513.0
4006,3335284,0,3.335284,513.0
4007,3336120,0,3.33612,510.0
4008,3336952,0,3.336952,510.0
4009,3337784,0,3.337784,512.0
4010,3338620,0,3.33862,510.0
4011,3339452,0,3.339452,512.0
4012,3340284,0,3.340284,507.0
4013,3341120,0,3.34112,509.0
4014,3341952,0,3.341952,508.0
4015,3342784,0,3.342784,506.0
4016,3343620,0,3.34362,511.0
4017,3344452,0,3.344452,511.0
4018,3345284,0,3.345284,508.0
4019,3346120,0,3.34612,511.0
4020,3346952,0,3.346952,511.0
4021,3347788,0,3.347788,512.0
4022,3348620,0,3.34862,510.0
4023,3349452,0,3.349452,508.0
4024,3350288,0,3.350288,512.0
4025,3351120,0,3.35112,511.0
4026,3351952,0,3.351952,509.0
4027,3352788,0,3.352788,510.0
4028,3353620,0,3.35362,509.0
4029,3354452,0,3.354452,512.0
4030,3355288,0,3.355288,514.0
4031,3356120,0,3.35612,508.0
4032,3356952,0,3.356952,511.0
4033,3357788,0,3.357788,512.0
4034,3358620,0,3.35862,508.0
4035,3359452,0,3.359452,510.0
4036,3360288,0,3.360288,507.0
4037,3361120,0,3.36112,510.0
4038,3361952,0,3.361952,513.0
4039,3362788,0,3.362788,508.0
4040,3363620,0,3.36362,512.0
4041,3364452,0,3.364452,511.0
4042,3365288,0,3.365288,507.0
4043,3366120,0,3.36612,511.0
4044,3366952,0,3.366952,506.0
4045,3367788,0,3.367788,508.0
4046,3368620,0,3.36862,508.0
4047,3369452,0,3.369452,509.0
4048,3370288,0,3.370288,514.0
4049,3371120,0,3.37112,512.0
4050,3371956,0,3.371956,508.0
4051,3372788,0,3.372788,511.0
4052,3373620,0,3.37362,507.0
4053,3374456,0,3.374456,511.0
4054,3375288,0,3.375288,509.0
4055,3376120,0,3.37612,507.0
4056,3376956,0,3.376956,510.0
4057,3377788,0,3.377788,514.0
4058,3378620,0,3.37862,509.0
4059,3379456,0,3.379456,513.0
4060,3380288,0,3.380288,509.0
4061,3381120,0,3.38112,511.0
4062,3381956,0,3.381956,512.0
4063,3382788,0,3.382788,509.0
4064,3383620,0,3.38362,510.0
4065,3384456,0,3.384456,510.0
4066,3385288,0,3.385288,507.0
4067,3386120,0,3.38612,507.0
4068,3386956,0,3.386956,501.0
4069,3387788,0,3.387788,508.0
4070,3388620,0,3.38862,509.0
4071,3389456,0,3.389456,508.0
4072,3390288,0,3.390288,514.0
4073,3391120,0,3.39112,509.0
4074,3391956,0,3.391956,507.0
4075,3392788,0,3.392788,511.0
4076,3393620,0,3.39362,507.0
4077,3394456,0,3.394456,508.0
4078,3395288,0,3.395288,505.0
4079,3396120,0,3.39612,509.0
4080,3396956,0,3.396956,512.0
4081,3397788,0,3.397788,514.0
4082,3398624,0,3.398624,511.0
4083,3399456,0,3.399456,515.0
4084,3400288,0,3.400288,511.0
4085,3401124,0,3.401124,512.0
4086,3401956,0,3.401956,513.0
4087,3402788,0,3.402788,506.0
4088,3403624,0,3.403624,511.0
4089,3404456,0,3.404456,514.0
4090,3405288,0,3.405288,512.0
4091,3406124,0,3.406124,511.0
4092,3406956,0,3.406956,507.0
4093,3407788,0,3.407788,512.0
4094,3408624,0,3.408624,510.0
4095,3409456,0,3.409456,507.0
4096,3410288,0,3.410288,507.0
4097,3411124,0,3.411124,511.0
4098,3411956,0,3.411956,508.0
4099,3412788,0,3.412788,511.0
4100,3413624,0,3.413624,509.0
4101,3414456,0,3.414456,510.0
4102,3415288,0,3.415288,509.0
4103,3416124,0,3.416124,508.0
4104,3416956,0,3.416956,511.0
4105,3417788,0,3.417788,509.0
4106,3418624,0,3.418624,507.0
4107,3419456,0,3.419456,511.0
4108,3420288,0,3.420288,508.0
4109,3421124,0,3.421124,514.0
4110,3421956,0,3.421956,512.0
4111,3422788,0,3.422788,509.0
4112,3423624,0,3.423624,511.0
4113,3424456,0,3.424456,510.0
4114,3425288,0,3.425288,505.0
4115,3426124,0,3.426124,510.0
4116,3426956,0,3.426956,507.0
4117,3427792,0,3.427792,510.0
