id,Total Microseconds,Minute,Seconds,Value
0,1048,0,0.001048,NaN
1,1784,0,0.001784,301.0
2,2620,0,0.00262,348.0
3,3452,0,0.003452,384.0
4,4284,0,0.004284,412.0
5,5120,0,0.00512,433.0
6,5952,0,0.005952,450.0
7,6784,0,0.006784,2.0
8,7620,0,0.00762,219.0
9,8452,0,0.008452,748.0
10,9284,0,0.009284,986.0
11,10120,0,0.01012,985.0
12,10952,0,0.010952,986.0
13,11788,0,0.011788,985.0
14,12620,0,0.01262,875.0
15,13452,0,0.013452,746.0
16,14288,0,0.014288,649.0
17,15120,0,0.01512,236.0
18,15952,0,0.015952,86.0
19,16788,0,0.016788,161.0
20,17620,0,0.01762,236.0
21,18452,0,0.018452,297.0
22,19288,0,0.019288,345.0
23,20120,0,0.02012,381.0
24,20952,0,0.020952,409.0
25,21788,0,0.021788,431.0
26,22620,0,0.02262,449.0
27,23452,0,0.023452,2.0
28,24288,0,0.024288,203.0
29,25120,0,0.02512,760.0
30,25952,0,0.025952,985.0
31,26788,0,0.026788,986.0
32,27620,0,0.02762,986.0
33,28452,0,0.028452,985.0
34,29288,0,0.029288,881.0
35,30120,0,0.03012,749.0
36,30952,0,0.030952,641.0
37,31788,0,0.031788,233.0
38,32620,0,0.03262,88.0
39,33452,0,0.033452,162.0
40,34288,0,0.034288,238.0
41,35120,0,0.03512,298.0
42,35952,0,0.035952,345.0
43,36788,0,0.036788,381.0
44,37620,0,0.03762,410.0
45,38452,0,0.038452,432.0
46,39288,0,0.039288,449.0
48,40956,0,0.040956,189.0
49,41788,0,0.041788,754.0
50,42620,0,0.04262,986.0
51,43456,0,0.043456,986.0
52,44288,0,0.044288,986.0
53,45120,0,0.04512,985.0
54,45956,0,0.045956,884.0
55,46788,0,0.046788,744.0
56,47620,0,0.04762,636.0
57,48456,0,0.048456,235.0
58,49288,0,0.049288,90.0
59,50120,0,0.05012,163.0
60,50956,0,0.050956,239.0
61,51788,0,0.051788,299.0
62,52620,0,0.05262,346.0
63,53456,0,0.053456,383.0
64,54288,0,0.054288,411.0
65,55120,0,0.05512,432.0
66,55956,0,0.055956,449.0
67,56788,0,0.056788,3.0
68,57620,0,0.05762,178.0
69,58456,0,0.058456,735.0
70,59288,0,0.059288,985.0
71,60120,0,0.06012,986.0
72,60956,0,0.060956,986.0
73,61788,0,0.061788,986.0
74,62620,0,0.06262,885.0
75,63456,0,0.063456,746.0
76,64288,0,0.064288,636.0
77,65124,0,0.065124,250.0
78,65956,0,0.065956,91.0
79,66788,0,0.066788,164.0
80,67624,0,0.067624,239.0
81,68456,0,0.068456,299.0
82,69288,0,0.069288,346.0
83,70124,0,0.070124,382.0
84,70956,0,0.070956,410.0
85,71788,0,0.071788,432.0
86,72624,0,0.072624,449.0
87,73456,0,0.073456,1.0
88,74288,0,0.074288,210.0
89,75124,0,0.075124,736.0
90,75956,0,0.075956,985.0
91,76788,0,0.076788,986.0
92,77624,0,0.077624,985.0
93,78456,0,0.078456,985.0
94,79288,0,0.079288,886.0
95,80124,0,0.080124,736.0
96,80956,0,0.080956,639.0
97,81788,0,0.081788,253.0
98,82624,0,0.082624,87.0
99,83456,0,0.083456,160.0
100,84288,0,0.084288,236.0
101,85124,0,0.085124,296.0
102,85956,0,0.085956,343.0
103,86788,0,0.086788,381.0
104,87624,0,0.087624,409.0
105,88456,0,0.088456,431.0
106,89288,0,0.089288,448.0
107,90124,0,0.090124,1.0
108,90956,0,0.090956,205.0
109,91792,0,0.091792,726.0
110,92624,0,0.092624,986.0
111,93456,0,0.093456,986.0
112,94292,0,0.094292,986.0
113,95124,0,0.095124,985.0
114,95956,0,0.095956,880.0
115,96792,0,0.096792,748.0
116,97624,0,0.097624,632.0
117,98456,0,0.098456,251.0
118,99292,0,0.099292,86.0
119,100124,0,0.100124,159.0
120,100956,0,0.100956,235.0
121,101792,0,0.101792,296.0
122,102624,0,0.102624,344.0
123,103456,0,0.103456,381.0
124,104292,0,0.104292,409.0
125,105124,0,0.105124,432.0
126,105956,0,0.105956,448.0
127,106792,0,0.106792,2.0
128,107624,0,0.107624,188.0
129,108456,0,0.108456,731.0
130,109292,0,0.109292,986.0
131,110124,0,0.110124,986.0
132,110956,0,0.110956,986.0
133,111792,0,0.111792,985.0
134,112624,0,0.112624,887.0
135,113456,0,0.113456,737.0
136,114292,0,0.114292,624.0
137,115124,0,0.115124,264.0
138,115956,0,0.115956,94.0
139,116792,0,0.116792,165.0
140,117624,0,0.117624,240.0
141,118456,0,0.118456,300.0
142,119292,0,0.119292,346.0
143,120124,0,0.120124,383.0
144,120960,0,0.12096,410.0
145,121792,0,0.121792,432.0
146,122624,0,0.122624,449.0
147,123460,0,0.12346,2.0
148,124292,0,0.124292,173.0
149,125124,0,0.125124,734.0
150,125960,0,0.12596,986.0
151,126792,0,0.126792,986.0
152,127624,0,0.127624,986.0
153,128460,0,0.12846,986.0
154,129292,0,0.129292,878.0
155,130124,0,0.130124,732.0
156,130960,0,0.13096,627.0
157,131792,0,0.131792,267.0
158,132624,0,0.132624,95.0
159,133460,0,0.13346,166.0
160,134292,0,0.134292,240.0
161,135124,0,0.135124,300.0
162,135960,0,0.13596,346.0
163,136792,0,0.136792,382.0
164,137624,0,0.137624,411.0
165,138460,0,0.13846,432.0
166,139292,0,0.139292,449.0
167,140124,0,0.140124,2.0
168,140960,0,0.14096,164.0
169,141792,0,0.141792,726.0
170,142624,0,0.142624,986.0
171,143460,0,0.14346,986.0
172,144292,0,0.144292,986.0
173,145124,0,0.145124,986.0
174,145960,0,0.14596,876.0
175,146792,0,0.146792,737.0
176,147628,0,0.147628,646.0
177,148460,0,0.14846,277.0
178,149292,0,0.149292,91.0
179,150128,0,0.150128,163.0
180,150960,0,0.15096,238.0
181,151792,0,0.151792,298.0
182,152628,0,0.152628,346.0
183,153460,0,0.15346,382.0
184,154292,0,0.154292,411.0
185,155128,0,0.155128,432.0
186,155960,0,0.15596,449.0
187,156792,0,0.156792,2.0
188,157628,0,0.157628,168.0
189,158460,0,0.15846,721.0
190,159292,0,0.159292,986.0
191,160128,0,0.160128,985.0
192,160960,0,0.16096,986.0
193,161792,0,0.161792,986.0
194,162628,0,0.162628,879.0
195,163460,0,0.16346,755.0
196,164292,0,0.164292,643.0
197,165128,0,0.165128,281.0
198,165960,0,0.16596,90.0
199,166792,0,0.166792,160.0
200,167628,0,0.167628,236.0
201,168460,0,0.16846,297.0
202,169292,0,0.169292,344.0
203,170128,0,0.170128,381.0
204,170960,0,0.17096,409.0
205,171796,0,0.171796,431.0
206,172628,0,0.172628,449.0
207,173460,0,0.17346,2.0
208,174296,0,0.174296,152.0
209,175128,0,0.175128,700.0
210,175960,0,0.17596,985.0
211,176796,0,0.176796,986.0
212,177628,0,0.177628,986.0
213,178460,0,0.17846,986.0
214,179296,0,0.179296,894.0
215,180128,0,0.180128,749.0
216,180960,0,0.18096,646.0
217,181796,0,0.181796,287.0
218,182628,0,0.182628,86.0
219,183460,0,0.18346,156.0
220,184296,0,0.184296,233.0
221,185128,0,0.185128,294.0
222,185960,0,0.18596,342.0
223,186796,0,0.186796,379.0
224,187628,0,0.187628,408.0
225,188460,0,0.18846,430.0
226,189296,0,0.189296,448.0
227,190128,0,0.190128,2.0
228,190960,0,0.19096,157.0
229,191796,0,0.191796,706.0
230,192628,0,0.192628,986.0
231,193460,0,0.19346,986.0
232,194296,0,0.194296,986.0
233,195128,0,0.195128,986.0
234,195960,0,0.19596,881.0
235,196796,0,0.196796,752.0
236,197628,0,0.197628,639.0
237,198460,0,0.19846,281.0
238,199296,0,0.199296,87.0
239,200128,0,0.200128,157.0
240,200964,0,0.200964,234.0
241,201796,0,0.201796,295.0
242,202628,0,0.202628,343.0
243,203464,0,0.203464,380.0
244,204296,0,0.204296,408.0
245,205128,0,0.205128,431.0
246,205964,0,0.205964,448.0
247,206796,0,0.206796,2.0
248,207628,0,0.207628,146.0
249,208464,0,0.208464,694.0
250,209296,0,0.209296,986.0
251,210128,0,0.210128,985.0
252,210964,0,0.210964,986.0
253,211796,0,0.211796,986.0
254,212628,0,0.212628,897.0
255,213464,0,0.213464,749.0
256,214296,0,0.214296,642.0
257,215128,0,0.215128,294.0
258,215964,0,0.215964,90.0
259,216796,0,0.216796,159.0
260,217628,0,0.217628,236.0
261,218464,0,0.218464,296.0
262,219296,0,0.219296,344.0
263,220128,0,0.220128,380.0
264,220964,0,0.220964,409.0
265,221796,0,0.221796,432.0
266,222628,0,0.222628,448.0
267,223464,0,0.223464,2.0
268,224296,0,0.224296,153.0
269,225132,0,0.225132,694.0
270,225964,0,0.225964,985.0
271,226796,0,0.226796,985.0
272,227632,0,0.227632,986.0
273,228464,0,0.228464,986.0
274,229296,0,0.229296,892.0
275,230132,0,0.230132,758.0
276,230964,0,0.230964,656.0
277,231796,0,0.231796,319.0
278,232632,0,0.232632,85.0
279,233464,0,0.233464,153.0
280,234296,0,0.234296,230.0
281,235132,0,0.235132,292.0
282,235964,0,0.235964,341.0
283,236796,0,0.236796,378.0
284,237632,0,0.237632,407.0
285,238464,0,0.238464,430.0
286,239296,0,0.239296,447.0
287,240132,0,0.240132,2.0
288,240964,0,0.240964,167.0
289,241796,0,0.241796,687.0
290,242632,0,0.242632,986.0
291,243464,0,0.243464,986.0
292,244296,0,0.244296,986.0
293,245132,0,0.245132,987.0
294,245964,0,0.245964,895.0
295,246796,0,0.246796,765.0
296,247632,0,0.247632,658.0
297,248464,0,0.248464,328.0
298,249296,0,0.249296,82.0
299,250132,0,0.250132,151.0
300,250964,0,0.250964,228.0
301,251800,0,0.2518,290.0
302,252632,0,0.252632,339.0
303,253464,0,0.253464,377.0
304,254300,0,0.2543,406.0
305,255132,0,0.255132,429.0
306,255964,0,0.255964,446.0
307,256800,0,0.2568,2.0
308,257632,0,0.257632,160.0
309,258464,0,0.258464,692.0
310,259300,0,0.2593,985.0
311,260132,0,0.260132,985.0
312,260964,0,0.260964,986.0
313,261800,0,0.2618,986.0
314,262632,0,0.262632,909.0
315,263464,0,0.263464,767.0
316,264300,0,0.2643,633.0
317,265132,0,0.265132,312.0
318,265964,0,0.265964,85.0
319,266800,0,0.2668,154.0
320,267632,0,0.267632,231.0
321,268464,0,0.268464,293.0
322,269300,0,0.2693,340.0
323,270132,0,0.270132,378.0
324,270964,0,0.270964,407.0
325,271800,0,0.2718,429.0
326,272632,0,0.272632,447.0
327,273464,0,0.273464,2.0
328,274300,0,0.2743,127.0
329,275132,0,0.275132,678.0
330,275964,0,0.275964,985.0
331,276800,0,0.2768,985.0
332,277632,0,0.277632,986.0
333,278468,0,0.278468,986.0
334,279300,0,0.2793,906.0
335,280132,0,0.280132,744.0
336,280968,0,0.280968,631.0
337,281800,0,0.2818,328.0
338,282632,0,0.282632,91.0
339,283468,0,0.283468,158.0
340,284300,0,0.2843,234.0
341,285132,0,0.285132,295.0
342,285968,0,0.285968,342.0
343,286800,0,0.2868,380.0
344,287632,0,0.287632,409.0
345,288468,0,0.288468,431.0
346,289300,0,0.2893,448.0
347,290132,0,0.290132,2.0
348,290968,0,0.290968,137.0
349,291800,0,0.2918,692.0
350,292632,0,0.292632,986.0
351,293468,0,0.293468,986.0
352,294300,0,0.2943,986.0
353,295132,0,0.295132,985.0
354,295968,0,0.295968,880.0
355,296800,0,0.2968,738.0
356,297632,0,0.297632,632.0
357,298468,0,0.298468,343.0
358,299300,0,0.2993,92.0
359,300132,0,0.300132,159.0
360,300968,0,0.300968,234.0
361,301800,0,0.3018,295.0
362,302632,0,0.302632,342.0
363,303468,0,0.303468,380.0
364,304300,0,0.3043,408.0
365,305132,0,0.305132,431.0
366,305968,0,0.305968,448.0
367,306800,0,0.3068,2.0
368,307636,0,0.307636,118.0
369,308468,0,0.308468,681.0
370,309300,0,0.3093,986.0
371,310136,0,0.310136,986.0
372,310968,0,0.310968,985.0
373,311800,0,0.3118,985.0
374,312636,0,0.312636,885.0
375,313468,0,0.313468,748.0
376,314300,0,0.3143,657.0
377,315136,0,0.315136,348.0
378,315968,0,0.315968,89.0
379,316800,0,0.3168,155.0
380,317636,0,0.317636,231.0
381,318472,0,0.318472,293.0
382,319300,0,0.3193,341.0
383,320136,0,0.320136,379.0
384,320968,0,0.320968,407.0
385,321800,0,0.3218,430.0
386,322636,0,0.322636,447.0
387,323468,0,0.323468,2.0
388,324300,0,0.3243,123.0
389,325136,0,0.325136,680.0
390,325968,0,0.325968,986.0
391,326800,0,0.3268,986.0
392,327636,0,0.327636,986.0
393,328468,0,0.328468,986.0
394,329300,0,0.3293,896.0
395,330136,0,0.330136,770.0
396,330968,0,0.330968,656.0
397,331800,0,0.3318,347.0
398,332636,0,0.332636,83.0
399,333468,0,0.333468,150.0
400,334304,0,0.334304,227.0
401,335136,0,0.335136,289.0
402,335968,0,0.335968,338.0
403,336804,0,0.336804,377.0
404,337636,0,0.337636,406.0
405,338468,0,0.338468,428.0
406,339304,0,0.339304,447.0
407,340136,0,0.340136,2.0
408,340968,0,0.340968,110.0
409,341804,0,0.341804,682.0
410,342636,0,0.342636,986.0
411,343468,0,0.343468,986.0
412,344304,0,0.344304,985.0
413,345136,0,0.345136,986.0
414,345968,0,0.345968,911.0
415,346804,0,0.346804,768.0
416,347636,0,0.347636,652.0
417,348468,0,0.348468,353.0
418,349304,0,0.349304,82.0
419,350136,0,0.350136,148.0
420,350968,0,0.350968,226.0
421,351804,0,0.351804,289.0
422,352636,0,0.352636,338.0
423,353468,0,0.353468,376.0
424,354304,0,0.354304,405.0
425,355136,0,0.355136,429.0
426,355968,0,0.355968,446.0
427,356804,0,0.356804,2.0
428,357636,0,0.357636,83.0
429,358468,0,0.358468,650.0
430,359304,0,0.359304,986.0
431,360136,0,0.360136,986.0
432,360972,0,0.360972,986.0
433,361804,0,0.361804,986.0
434,362636,0,0.362636,903.0
435,363472,0,0.363472,754.0
436,364304,0,0.364304,643.0
437,365136,0,0.365136,348.0
438,365972,0,0.365972,93.0
439,366804,0,0.366804,158.0
440,367636,0,0.367636,234.0
441,368472,0,0.368472,295.0
442,369304,0,0.369304,343.0
443,370136,0,0.370136,380.0
444,370972,0,0.370972,408.0
445,371804,0,0.371804,431.0
446,372636,0,0.372636,448.0
447,373472,0,0.373472,2.0
448,374304,0,0.374304,94.0
449,375136,0,0.375136,652.0
450,375972,0,0.375972,986.0
451,376804,0,0.376804,986.0
452,377636,0,0.377636,986.0
453,378472,0,0.378472,986.0
454,379304,0,0.379304,902.0
455,380136,0,0.380136,759.0
456,380972,0,0.380972,642.0
457,381804,0,0.381804,363.0
458,382636,0,0.382636,87.0
459,383472,0,0.383472,153.0
460,384304,0,0.384304,230.0
461,385136,0,0.385136,292.0
462,385972,0,0.385972,340.0
463,386804,0,0.386804,378.0
464,387640,0,0.38764,407.0
465,388472,0,0.388472,430.0
466,389304,0,0.389304,447.0
467,390140,0,0.39014,1.0
468,390972,0,0.390972,114.0
469,391804,0,0.391804,647.0
470,392640,0,0.39264,985.0
471,393472,0,0.393472,986.0
472,394304,0,0.394304,986.0
473,395140,0,0.39514,986.0
474,395972,0,0.395972,897.0
475,396804,0,0.396804,751.0
476,397640,0,0.39764,663.0
477,398472,0,0.398472,388.0
478,399304,0,0.399304,87.0
479,400140,0,0.40014,150.0
480,400972,0,0.400972,227.0
481,401804,0,0.401804,289.0
482,402640,0,0.40264,338.0
483,403472,0,0.403472,376.0
484,404304,0,0.404304,406.0
485,405140,0,0.40514,428.0
486,405972,0,0.405972,446.0
487,406804,0,0.406804,3.0
488,407640,0,0.40764,114.0
489,408472,0,0.408472,644.0
490,409304,0,0.409304,985.0
491,410140,0,0.41014,986.0
492,410972,0,0.410972,986.0
493,411808,0,0.411808,986.0
494,412640,0,0.41264,895.0
495,413472,0,0.413472,772.0
496,414308,0,0.414308,646.0
497,415140,0,0.41514,375.0
498,415972,0,0.415972,86.0
499,416808,0,0.416808,150.0
500,417640,0,0.41764,228.0
501,418472,0,0.418472,290.0
502,419308,0,0.419308,339.0
503,420140,0,0.42014,377.0
504,420972,0,0.420972,406.0
505,421808,0,0.421808,429.0
506,422640,0,0.42264,447.0
507,423472,0,0.423472,2.0
508,424308,0,0.424308,100.0
509,425140,0,0.42514,651.0
510,425972,0,0.425972,986.0
511,426808,0,0.426808,986.0
512,427640,0,0.42764,986.0
513,428472,0,0.428472,986.0
514,429308,0,0.429308,919.0
515,430140,0,0.43014,756.0
516,430972,0,0.430972,632.0
517,431808,0,0.431808,391.0
518,432640,0,0.43264,93.0
519,433472,0,0.433472,156.0
520,434308,0,0.434308,231.0
521,435140,0,0.43514,293.0
522,435972,0,0.435972,341.0
523,436808,0,0.436808,379.0
524,437640,0,0.43764,408.0
525,438476,0,0.438476,430.0
526,439308,0,0.439308,447.0
527,440140,0,0.44014,2.0
528,440976,0,0.440976,70.0
529,441808,0,0.441808,652.0
530,442640,0,0.44264,986.0
531,443476,0,0.443476,986.0
532,444308,0,0.444308,986.0
533,445140,0,0.44514,986.0
534,445976,0,0.445976,903.0
535,446808,0,0.446808,743.0
536,447640,0,0.44764,635.0
537,448476,0,0.448476,416.0
538,449308,0,0.449308,97.0
539,450140,0,0.45014,156.0
540,450976,0,0.450976,232.0
541,451808,0,0.451808,294.0
542,452640,0,0.45264,341.0
543,453476,0,0.453476,379.0
544,454308,0,0.454308,408.0
545,455140,0,0.45514,430.0
546,455976,0,0.455976,447.0
547,456808,0,0.456808,2.0
548,457640,0,0.45764,83.0
549,458476,0,0.458476,637.0
550,459308,0,0.459308,986.0
551,460140,0,0.46014,986.0
552,460976,0,0.460976,986.0
553,461808,0,0.461808,985.0
554,462640,0,0.46264,887.0
555,463476,0,0.463476,753.0
556,464308,0,0.464308,660.0
557,465140,0,0.46514,408.0
558,465976,0,0.465976,92.0
559,466808,0,0.466808,153.0
560,467644,0,0.467644,229.0
561,468476,0,0.468476,292.0
562,469308,0,0.469308,340.0
563,470144,0,0.470144,378.0
564,470976,0,0.470976,407.0
565,471808,0,0.471808,430.0
566,472644,0,0.472644,447.0
567,473476,0,0.473476,2.0
568,474308,0,0.474308,93.0
569,475144,0,0.475144,635.0
570,475976,0,0.475976,985.0
571,476808,0,0.476808,986.0
572,477644,0,0.477644,986.0
573,478476,0,0.478476,986.0
574,479308,0,0.479308,896.0
575,480144,0,0.480144,765.0
576,480976,0,0.480976,652.0
577,481808,0,0.481808,423.0
578,482644,0,0.482644,86.0
579,483476,0,0.483476,146.0
580,484308,0,0.484308,224.0
581,485144,0,0.485144,287.0
582,485976,0,0.485976,337.0
583,486808,0,0.486808,375.0
584,487644,0,0.487644,405.0
585,488476,0,0.488476,428.0
586,489308,0,0.489308,446.0
587,490144,0,0.490144,2.0
588,490976,0,0.490976,78.0
589,491808,0,0.491808,615.0
590,492644,0,0.492644,986.0
591,493476,0,0.493476,986.0
592,494312,0,0.494312,986.0
593,495144,0,0.495144,986.0
594,495976,0,0.495976,908.0
595,496812,0,0.496812,760.0
596,497644,0,0.497644,667.0
597,498476,0,0.498476,433.0
598,499312,0,0.499312,83.0
599,500144,0,0.500144,143.0
600,500976,0,0.500976,222.0
601,501812,0,0.501812,285.0
602,502644,0,0.502644,335.0
603,503476,0,0.503476,374.0
604,504312,0,0.504312,404.0
605,505144,0,0.505144,427.0
606,505976,0,0.505976,446.0
607,506812,0,0.506812,2.0
608,507644,0,0.507644,78.0
609,508476,0,0.508476,632.0
610,509312,0,0.509312,986.0
611,510144,0,0.510144,986.0
612,510976,0,0.510976,986.0
613,511812,0,0.511812,986.0
614,512644,0,0.512644,899.0
615,513476,0,0.513476,778.0
616,514312,0,0.514312,654.0
617,515144,0,0.515144,427.0
618,515976,0,0.515976,85.0
619,516812,0,0.516812,145.0
620,517644,0,0.517644,224.0
621,518476,0,0.518476,287.0
622,519312,0,0.519312,336.0
623,520144,0,0.520144,375.0
624,520980,0,0.52098,405.0
625,521812,0,0.521812,428.0
626,522644,0,0.522644,446.0
627,523480,0,0.52348,2.0
628,524312,0,0.524312,52.0
629,525144,0,0.525144,621.0
630,525980,0,0.52598,986.0
631,526812,0,0.526812,986.0
632,527644,0,0.527644,986.0
633,528480,0,0.52848,986.0
634,529312,0,0.529312,919.0
635,530144,0,0.530144,775.0
636,530980,0,0.53098,659.0
637,531812,0,0.531812,439.0
638,532644,0,0.532644,88.0
639,533480,0,0.53348,148.0
640,534312,0,0.534312,225.0
641,535144,0,0.535144,288.0
642,535980,0,0.53598,338.0
643,536812,0,0.536812,376.0
644,537644,0,0.537644,405.0
645,538480,0,0.53848,428.0
646,539312,0,0.539312,446.0
647,540144,0,0.540144,2.0
648,540980,0,0.54098,72.0
649,541812,0,0.541812,615.0
650,542644,0,0.542644,986.0
651,543480,0,0.54348,986.0
652,544312,0,0.544312,986.0
653,545144,0,0.545144,986.0
654,545980,0,0.54598,915.0
655,546812,0,0.546812,774.0
656,547648,0,0.547648,673.0
657,548480,0,0.54848,462.0
658,549312,0,0.549312,87.0
659,550148,0,0.550148,144.0
660,550980,0,0.55098,222.0
661,551812,0,0.551812,286.0
662,552648,0,0.552648,335.0
663,553480,0,0.55348,375.0
664,554312,0,0.554312,404.0
665,555148,0,0.555148,428.0
666,555980,0,0.55598,446.0
667,556812,0,0.556812,2.0
668,557648,0,0.557648,85.0
669,558480,0,0.55848,613.0
670,559312,0,0.559312,986.0
671,560148,0,0.560148,987.0
672,560980,0,0.56098,986.0
673,561812,0,0.561812,986.0
674,562648,0,0.562648,917.0
675,563480,0,0.56348,769.0
676,564312,0,0.564312,655.0
677,565148,0,0.565148,463.0
678,565980,0,0.56598,91.0
679,566812,0,0.566812,148.0
680,567648,0,0.567648,225.0
681,568480,0,0.56848,288.0
682,569312,0,0.569312,337.0
683,570148,0,0.570148,375.0
684,570980,0,0.57098,405.0
685,571812,0,0.571812,428.0
686,572648,0,0.572648,446.0
687,573480,0,0.57348,2.0
688,574316,0,0.574316,80.0
689,575148,0,0.575148,607.0
690,575980,0,0.57598,986.0
691,576816,0,0.576816,985.0
692,577648,0,0.577648,985.0
693,578480,0,0.57848,986.0
694,579316,0,0.579316,932.0
695,580148,0,0.580148,785.0
696,580980,0,0.58098,644.0
697,581816,0,0.581816,459.0
698,582648,0,0.582648,85.0
699,583480,0,0.58348,144.0
700,584316,0,0.584316,222.0
701,585148,0,0.585148,285.0
702,585980,0,0.58598,335.0
703,586816,0,0.586816,374.0
704,587648,0,0.587648,404.0
705,588480,0,0.58848,427.0
706,589316,0,0.589316,446.0
707,590148,0,0.590148,2.0
708,590980,0,0.59098,61.0
709,591816,0,0.591816,597.0
710,592648,0,0.592648,986.0
711,593480,0,0.59348,985.0
712,594316,0,0.594316,986.0
713,595148,0,0.595148,986.0
714,595980,0,0.59598,926.0
715,596816,0,0.596816,758.0
716,597648,0,0.597648,640.0
717,598484,0,0.598484,463.0
718,599316,0,0.599316,91.0
719,600148,0,0.600148,148.0
720,600984,0,0.600984,225.0
721,601816,0,0.601816,288.0
722,602648,0,0.602648,338.0
723,603484,0,0.603484,376.0
724,604316,0,0.604316,405.0
725,605148,0,0.605148,429.0
726,605984,0,0.605984,447.0
727,606816,0,0.606816,2.0
728,607648,0,0.607648,67.0
729,608484,0,0.608484,610.0
730,609316,0,0.609316,986.0
731,610148,0,0.610148,985.0
732,610984,0,0.610984,986.0
733,611816,0,0.611816,986.0
734,612648,0,0.612648,901.0
735,613484,0,0.613484,756.0
736,614316,0,0.614316,650.0
737,615148,0,0.615148,523.0
738,615984,0,0.615984,92.0
739,616816,0,0.616816,144.0
740,617648,0,0.617648,222.0
741,618484,0,0.618484,286.0
742,619316,0,0.619316,336.0
743,620148,0,0.620148,374.0
744,620984,0,0.620984,404.0
745,621816,0,0.621816,427.0
746,622648,0,0.622648,445.0
747,623484,0,0.623484,2.0
748,624316,0,0.624316,45.0
749,625152,0,0.625152,603.0
750,625984,0,0.625984,986.0
751,626816,0,0.626816,986.0
752,627652,0,0.627652,986.0
753,628484,0,0.628484,986.0
754,629316,0,0.629316,904.0
755,630152,0,0.630152,760.0
756,630984,0,0.630984,677.0
757,631816,0,0.631816,522.0
758,632652,0,0.632652,90.0
759,633484,0,0.633484,143.0
760,634316,0,0.634316,220.0
761,635152,0,0.635152,284.0
762,635984,0,0.635984,335.0
763,636816,0,0.636816,373.0
764,637652,0,0.637652,403.0
765,638484,0,0.638484,427.0
766,639316,0,0.639316,445.0
767,640152,0,0.640152,2.0
768,640984,0,0.640984,61.0
769,641816,0,0.641816,597.0
770,642652,0,0.642652,985.0
771,643484,0,0.643484,985.0
772,644316,0,0.644316,986.0
773,645152,0,0.645152,985.0
774,645984,0,0.645984,908.0
775,646816,0,0.646816,792.0
776,647652,0,0.647652,672.0
777,648484,0,0.648484,510.0
778,649316,0,0.649316,83.0
779,650152,0,0.650152,138.0
780,650984,0,0.650984,217.0
781,651820,0,0.65182,282.0
782,652652,0,0.652652,332.0
783,653484,0,0.653484,371.0
784,654320,0,0.65432,402.0
785,655152,0,0.655152,426.0
786,655984,0,0.655984,444.0
787,656820,0,0.65682,2.0
788,657652,0,0.657652,28.0
789,658484,0,0.658484,601.0
790,659320,0,0.65932,985.0
791,660152,0,0.660152,986.0
792,660984,0,0.660984,985.0
793,661820,0,0.66182,986.0
794,662652,0,0.662652,934.0
795,663484,0,0.663484,788.0
796,664320,0,0.66432,662.0
797,665152,0,0.665152,505.0
798,665984,0,0.665984,84.0
799,666820,0,0.66682,139.0
800,667656,0,0.667656,218.0
801,668484,0,0.668484,282.0
802,669320,0,0.66932,333.0
803,670152,0,0.670152,372.0
804,670984,0,0.670984,403.0
805,671820,0,0.67182,427.0
806,672652,0,0.672652,445.0
807,673484,0,0.673484,2.0
808,674320,0,0.67432,22.0
809,675152,0,0.675152,585.0
810,675984,0,0.675984,985.0
811,676820,0,0.67682,986.0
812,677652,0,0.677652,986.0
813,678488,0,0.678488,986.0
814,679320,0,0.67932,927.0
815,680152,0,0.680152,779.0
816,680988,0,0.680988,656.0
817,681820,0,0.68182,521.0
818,682652,0,0.682652,85.0
819,683488,0,0.683488,138.0
820,684320,0,0.68432,217.0
821,685152,0,0.685152,282.0
822,685988,0,0.685988,332.0
823,686820,0,0.68682,372.0
824,687652,0,0.687652,402.0
825,688488,0,0.688488,426.0
826,689320,0,0.68932,444.0
827,690152,0,0.690152,2.0
828,690988,0,0.690988,39.0
829,691820,0,0.69182,575.0
830,692652,0,0.692652,986.0
831,693488,0,0.693488,985.0
832,694320,0,0.69432,986.0
833,695152,0,0.695152,986.0
834,695988,0,0.695988,923.0
835,696820,0,0.69682,779.0
836,697652,0,0.697652,658.0
837,698488,0,0.698488,566.0
838,699320,0,0.69932,86.0
839,700152,0,0.700152,137.0
840,700988,0,0.700988,216.0
841,701820,0,0.70182,281.0
842,702652,0,0.702652,331.0
843,703488,0,0.703488,371.0
844,704320,0,0.70432,402.0
845,705152,0,0.705152,426.0
846,705988,0,0.705988,444.0
847,706820,0,0.70682,2.0
848,707656,0,0.707656,54.0
849,708488,0,0.708488,573.0
850,709320,0,0.70932,986.0
851,710156,0,0.710156,986.0
852,710988,0,0.710988,986.0
853,711820,0,0.71182,986.0
854,712656,0,0.712656,918.0
855,713488,0,0.713488,774.0
856,714320,0,0.71432,683.0
857,715156,0,0.715156,561.0
858,715988,0,0.715988,83.0
859,716820,0,0.71682,134.0
860,717656,0,0.717656,214.0
861,718488,0,0.718488,280.0
862,719320,0,0.71932,330.0
863,720156,0,0.720156,371.0
864,720988,0,0.720988,402.0
865,721820,0,0.72182,425.0
866,722656,0,0.722656,443.0
867,723488,0,0.723488,1.0
868,724320,0,0.72432,50.0
869,725156,0,0.725156,566.0
870,725988,0,0.725988,986.0
871,726820,0,0.72682,986.0
872,727656,0,0.727656,986.0
873,728488,0,0.728488,986.0
874,729320,0,0.72932,915.0
875,730156,0,0.730156,793.0
876,730988,0,0.730988,666.0
877,731820,0,0.73182,562.0
878,732656,0,0.732656,85.0
879,733488,0,0.733488,136.0
880,734324,0,0.734324,215.0
881,735156,0,0.735156,280.0
882,735988,0,0.735988,331.0
883,736824,0,0.736824,371.0
884,737656,0,0.737656,401.0
885,738488,0,0.738488,426.0
886,739324,0,0.739324,444.0
887,740156,0,0.740156,2.0
888,740988,0,0.740988,39.0
889,741824,0,0.741824,576.0
890,742656,0,0.742656,986.0
891,743488,0,0.743488,985.0
892,744324,0,0.744324,986.0
893,745156,0,0.745156,986.0
894,745988,0,0.745988,934.0
895,746824,0,0.746824,784.0
896,747656,0,0.747656,646.0
897,748488,0,0.748488,572.0
898,749324,0,0.749324,94.0
899,750156,0,0.750156,143.0
900,750988,0,0.750988,220.0
901,751824,0,0.751824,284.0
902,752656,0,0.752656,334.0
903,753488,0,0.753488,373.0
904,754324,0,0.754324,403.0
905,755156,0,0.755156,427.0
906,755988,0,0.755988,445.0
907,756824,0,0.756824,2.0
908,757656,0,0.757656,13.0
909,758492,0,0.758492,564.0
910,759324,0,0.759324,986.0
911,760156,0,0.760156,986.0
912,760992,0,0.760992,986.0
913,761824,0,0.761824,986.0
914,762656,0,0.762656,921.0
915,763492,0,0.763492,759.0
916,764324,0,0.764324,647.0
917,765156,0,0.765156,592.0
918,765992,0,0.765992,98.0
919,766824,0,0.766824,145.0
920,767656,0,0.767656,222.0
921,768492,0,0.768492,286.0
922,769324,0,0.769324,336.0
923,770156,0,0.770156,374.0
924,770992,0,0.770992,404.0
925,771824,0,0.771824,427.0
926,772656,0,0.772656,445.0
927,773492,0,0.773492,2.0
928,774324,0,0.774324,27.0
929,775156,0,0.775156,552.0
930,775992,0,0.775992,986.0
931,776824,0,0.776824,985.0
932,777656,0,0.777656,986.0
933,778492,0,0.778492,986.0
934,779324,0,0.779324,914.0
935,780156,0,0.780156,771.0
936,780992,0,0.780992,669.0
937,781824,0,0.781824,586.0
938,782656,0,0.782656,94.0
939,783492,0,0.783492,140.0
940,784324,0,0.784324,218.0
941,785160,0,0.78516,283.0
942,785992,0,0.785992,333.0
943,786824,0,0.786824,373.0
944,787660,0,0.78766,403.0
945,788492,0,0.788492,426.0
946,789324,0,0.789324,444.0
947,790160,0,0.79016,2.0
948,790992,0,0.790992,27.0
949,791824,0,0.791824,548.0
950,792660,0,0.79266,986.0
951,793492,0,0.793492,985.0
952,794324,0,0.794324,985.0
953,795160,0,0.79516,986.0
954,795992,0,0.795992,920.0
955,796824,0,0.796824,790.0
956,797660,0,0.79766,668.0
957,798492,0,0.798492,603.0
958,799324,0,0.799324,87.0
959,800160,0,0.80016,131.0
960,800992,0,0.800992,210.0
961,801824,0,0.801824,277.0
962,802660,0,0.80266,328.0
963,803492,0,0.803492,369.0
964,804324,0,0.804324,400.0
965,805160,0,0.80516,425.0
966,805992,0,0.805992,443.0
967,806824,0,0.806824,2.0
968,807660,0,0.80766,23.0
969,808492,0,0.808492,532.0
970,809324,0,0.809324,986.0
971,810160,0,0.81016,986.0
972,810992,0,0.810992,986.0
973,811824,0,0.811824,986.0
974,812660,0,0.81266,935.0
975,813492,0,0.813492,785.0
976,814328,0,0.814328,682.0
977,815160,0,0.81516,589.0
978,815992,0,0.815992,86.0
979,816828,0,0.816828,129.0
980,817660,0,0.81766,208.0
981,818492,0,0.818492,276.0
982,819328,0,0.819328,327.0
983,820160,0,0.82016,368.0
984,820992,0,0.820992,399.0
985,821828,0,0.821828,423.0
986,822660,0,0.82266,443.0
987,823492,0,0.823492,2.0
988,824328,0,0.824328,20.0
989,825160,0,0.82516,538.0
990,825992,0,0.825992,985.0
991,826828,0,0.826828,986.0
992,827660,0,0.82766,985.0
993,828492,0,0.828492,986.0
994,829328,0,0.829328,925.0
995,830160,0,0.83016,800.0
996,830992,0,0.830992,676.0
997,831828,0,0.831828,584.0
998,832660,0,0.83266,88.0
999,833492,0,0.833492,131.0
1000,834328,0,0.834328,210.0
1001,835160,0,0.83516,277.0
1002,835992,0,0.835992,329.0
1003,836828,0,0.836828,369.0
1004,837660,0,0.83766,400.0
1005,838496,0,0.838496,425.0
1006,839328,0,0.839328,443.0
1007,840160,0,0.84016,1.0
1008,840996,0,0.840996,3.0
1009,841828,0,0.841828,532.0
1010,842660,0,0.84266,985.0
1011,843496,0,0.843496,986.0
1012,844328,0,0.844328,986.0
1013,845160,0,0.84516,986.0
1014,845996,0,0.845996,944.0
1015,846828,0,0.846828,796.0
1016,847660,0,0.84766,679.0
1017,848496,0,0.848496,602.0
1018,849328,0,0.849328,93.0
1019,850160,0,0.85016,132.0
1020,850996,0,0.850996,212.0
1021,851828,0,0.851828,277.0
1022,852660,0,0.85266,329.0
1023,853496,0,0.853496,369.0
1024,854328,0,0.854328,400.0
1025,855160,0,0.85516,424.0
1026,855996,0,0.855996,443.0
1027,856828,0,0.856828,2.0
1028,857660,0,0.85766,13.0
1029,858496,0,0.858496,534.0
1030,859328,0,0.859328,985.0
1031,860168,0,0.860168,986.0
1032,860996,0,0.860996,986.0
1033,861828,0,0.861828,985.0
1034,862660,0,0.86266,941.0
1035,863496,0,0.863496,805.0
1036,864328,0,0.864328,696.0
1037,865164,0,0.865164,597.0
1038,865996,0,0.865996,87.0
1039,866828,0,0.866828,128.0
1040,867664,0,0.867664,208.0
1041,868496,0,0.868496,275.0
1042,869328,0,0.869328,327.0
1043,870164,0,0.870164,368.0
1044,870996,0,0.870996,399.0
1045,871828,0,0.871828,424.0
1046,872664,0,0.872664,442.0
1047,873496,0,0.873496,2.0
1048,874328,0,0.874328,15.0
1049,875164,0,0.875164,527.0
1050,875996,0,0.875996,987.0
1051,876828,0,0.876828,986.0
1052,877664,0,0.877664,986.0
1053,878496,0,0.878496,986.0
1054,879328,0,0.879328,945.0
1055,880164,0,0.880164,814.0
1056,880996,0,0.880996,689.0
1057,881828,0,0.881828,569.0
1058,882664,0,0.882664,87.0
1059,883496,0,0.883496,127.0
1060,884328,0,0.884328,207.0
1061,885164,0,0.885164,274.0
1062,885996,0,0.885996,326.0
1063,886828,0,0.886828,367.0
1064,887664,0,0.887664,399.0
1065,888496,0,0.888496,424.0
1066,889328,0,0.889328,442.0
1067,890164,0,0.890164,2.0
1068,890996,0,0.890996,14.0
1069,891828,0,0.891828,519.0
1070,892664,0,0.892664,985.0
1071,893496,0,0.893496,986.0
1072,894332,0,0.894332,986.0
1073,895164,0,0.895164,986.0
1074,895996,0,0.895996,961.0
1075,896832,0,0.896832,809.0
1076,897664,0,0.897664,662.0
1077,898496,0,0.898496,565.0
1078,899332,0,0.899332,89.0
1079,900164,0,0.900164,129.0
1080,900996,0,0.900996,208.0
1081,901832,0,0.901832,275.0
1082,902664,0,0.902664,327.0
1083,903496,0,0.903496,367.0
1084,904332,0,0.904332,399.0
1085,905164,0,0.905164,423.0
1086,905996,0,0.905996,442.0
1087,906832,0,0.906832,2.0
1088,907664,0,0.907664,7.0
1089,908496,0,0.908496,509.0
1090,909332,0,0.909332,986.0
1091,910164,0,0.910164,986.0
1092,910996,0,0.910996,986.0
1093,911832,0,0.911832,986.0
1094,912664,0,0.912664,954.0
1095,913496,0,0.913496,786.0
1096,914332,0,0.914332,660.0
1097,915164,0,0.915164,570.0
1098,915996,0,0.915996,97.0
1099,916832,0,0.916832,134.0
1100,917664,0,0.917664,212.0
1101,918496,0,0.918496,278.0
1102,919332,0,0.919332,329.0
1103,920164,0,0.920164,370.0
1104,921000,0,0.921,401.0
1105,921832,0,0.921832,425.0
1106,922664,0,0.922664,444.0
1107,923500,0,0.9235,2.0
1108,924332,0,0.924332,6.0
1109,925164,0,0.925164,520.0
1110,926000,0,0.926,986.0
1111,926832,0,0.926832,986.0
1112,927664,0,0.927664,986.0
1113,928500,0,0.9285,986.0
1114,929332,0,0.929332,929.0
1115,930164,0,0.930164,785.0
1116,931000,0,0.931,669.0
1117,931832,0,0.931832,609.0
1118,932664,0,0.932664,94.0
1119,933500,0,0.9335,128.0
1120,934332,0,0.934332,208.0
1121,935164,0,0.935164,275.0
1122,936000,0,0.936,327.0
1123,936832,0,0.936832,368.0
1124,937664,0,0.937664,399.0
1125,938500,0,0.9385,423.0
1126,939332,0,0.939332,443.0
1127,940164,0,0.940164,2.0
1128,941000,0,0.941,2.0
1129,941832,0,0.941832,515.0
1130,942664,0,0.942664,985.0
1131,943500,0,0.9435,986.0
1132,944332,0,0.944332,986.0
1133,945168,0,0.945168,986.0
1134,946000,0,0.946,935.0
1135,946832,0,0.946832,789.0
1136,947668,0,0.947668,703.0
1137,948500,0,0.9485,607.0
1138,949332,0,0.949332,92.0
1139,950168,0,0.950168,126.0
1140,951000,0,0.951,205.0
1141,951832,0,0.951832,272.0
1142,952668,0,0.952668,325.0
1143,953500,0,0.9535,366.0
1144,954332,0,0.954332,397.0
1145,955168,0,0.955168,422.0
1146,956000,0,0.956,442.0
1147,956832,0,0.956832,2.0
1148,957668,0,0.957668,9.0
1149,958500,0,0.9585,507.0
1150,959332,0,0.959332,986.0
1151,960168,0,0.960168,986.0
1152,961000,0,0.961,986.0
1153,961832,0,0.961832,986.0
1154,962668,0,0.962668,939.0
1155,963500,0,0.9635,825.0
1156,964332,0,0.964332,697.0
1157,965168,0,0.965168,591.0
1158,966000,0,0.966,87.0
1159,966832,0,0.966832,118.0
1160,967668,0,0.967668,199.0
1161,968500,0,0.9685,268.0
1162,969332,0,0.969332,321.0
1163,970168,0,0.970168,363.0
1164,971000,0,0.971,396.0
1165,971832,0,0.971832,421.0
1166,972668,0,0.972668,440.0
1167,973500,0,0.9735,2.0
1168,974336,0,0.974336,2.0
1169,975168,0,0.975168,499.0
1170,976000,0,0.976,986.0
1171,976836,0,0.976836,986.0
1172,977668,0,0.977668,986.0
1173,978500,0,0.9785,986.0
1174,979336,0,0.979336,961.0
1175,980168,0,0.980168,815.0
1176,981000,0,0.981,687.0
1177,981836,0,0.981836,588.0
1178,982668,0,0.982668,87.0
1179,983500,0,0.9835,121.0
1180,984336,0,0.984336,202.0
1181,985168,0,0.985168,270.0
1182,986000,0,0.986,323.0
1183,986836,0,0.986836,365.0
1184,987668,0,0.987668,396.0
1185,988500,0,0.9885,422.0
1186,989336,0,0.989336,441.0
1187,990168,0,0.990168,2.0
1188,991000,0,0.991,2.0
1189,991836,0,0.991836,491.0
1190,992668,0,0.992668,970.0
1191,993500,0,0.9935,985.0
1192,994336,0,0.994336,986.0
1193,995168,0,0.995168,986.0
1194,996000,0,0.996,957.0
1195,996836,0,0.996836,806.0
1196,997668,0,0.997668,681.0
1197,998504,0,0.998504,580.0
1198,999336,0,0.999336,92.0
1199,1000168,0,1.000168,123.0
1200,1001004,0,1.001004,203.0
1201,1001836,0,1.001836,270.0
1202,1002668,0,1.002668,323.0
1203,1003504,0,1.003504,365.0
1204,1004336,0,1.004336,396.0
1205,1005168,0,1.005168,421.0
1206,1006004,0,1.006004,441.0
1207,1006836,0,1.006836,2.0
1208,1007668,0,1.007668,2.0
1209,1008504,0,1.008504,489.0
1210,1009336,0,1.009336,964.0
1211,1010168,0,1.010168,985.0
1212,1011004,0,1.011004,986.0
1213,1011836,0,1.011836,986.0
1214,1012668,0,1.012668,947.0
1215,1013504,0,1.013504,812.0
1216,1014336,0,1.014336,681.0
1217,1015168,0,1.015168,609.0
1218,1016004,0,1.016004,94.0
1219,1016840,0,1.01684,118.0
1220,1017668,0,1.017668,198.0
1221,1018504,0,1.018504,266.0
1222,1019336,0,1.019336,320.0
1223,1020168,0,1.020168,362.0
1224,1021004,0,1.021004,395.0
1225,1021836,0,1.021836,421.0
1226,1022668,0,1.022668,440.0
1227,1023504,0,1.023504,3.0
1228,1024336,0,1.024336,4.0
1229,1025172,0,1.025172,480.0
1230,1026004,0,1.026004,951.0
1231,1026836,0,1.026836,986.0
1232,1027672,0,1.027672,985.0
1233,1028504,0,1.028504,987.0
1234,1029336,0,1.029336,945.0
1235,1030172,0,1.030172,794.0
1236,1031004,0,1.031004,693.0
1237,1031836,0,1.031836,593.0
1238,1032672,0,1.032672,97.0
1239,1033504,0,1.033504,122.0
1240,1034336,0,1.034336,201.0
1241,1035172,0,1.035172,270.0
1242,1036004,0,1.036004,323.0
1243,1036836,0,1.036836,364.0
1244,1037672,0,1.037672,397.0
1245,1038504,0,1.038504,421.0
1246,1039336,0,1.039336,441.0
1247,1040172,0,1.040172,3.0
1248,1041004,0,1.041004,3.0
1249,1041836,0,1.041836,477.0
1250,1042672,0,1.042672,985.0
1251,1043504,0,1.043504,985.0
1252,1044336,0,1.044336,986.0
1253,1045172,0,1.045172,986.0
1254,1046004,0,1.046004,941.0
1255,1046836,0,1.046836,824.0
1256,1047672,0,1.047672,690.0
1257,1048504,0,1.048504,576.0
1258,1049336,0,1.049336,93.0
1259,1050172,0,1.050172,120.0
1260,1051004,0,1.051004,200.0
1261,1051840,0,1.05184,268.0
1262,1052672,0,1.052672,322.0
1263,1053504,0,1.053504,363.0
1264,1054340,0,1.05434,395.0
1265,1055172,0,1.055172,421.0
1266,1056004,0,1.056004,440.0
1267,1056840,0,1.05684,2.0
1268,1057672,0,1.057672,3.0
1269,1058504,0,1.058504,476.0
1270,1059340,0,1.05934,986.0
1271,1060172,0,1.060172,986.0
1272,1061004,0,1.061004,986.0
1273,1061840,0,1.06184,985.0
1274,1062672,0,1.062672,963.0
1275,1063504,0,1.063504,813.0
1276,1064340,0,1.06434,666.0
1277,1065172,0,1.065172,577.0
1278,1066004,0,1.066004,103.0
1279,1066840,0,1.06684,126.0
1280,1067672,0,1.067672,205.0
1281,1068504,0,1.068504,272.0
1282,1069340,0,1.06934,325.0
1283,1070172,0,1.070172,366.0
1284,1071004,0,1.071004,398.0
1285,1071840,0,1.07184,423.0
1286,1072672,0,1.072672,441.0
1287,1073504,0,1.073504,5.0
1288,1074340,0,1.07434,2.0
1289,1075172,0,1.075172,471.0
1290,1076004,0,1.076004,960.0
1291,1076840,0,1.07684,986.0
1292,1077672,0,1.077672,986.0
1293,1078504,0,1.078504,985.0
1294,1079340,0,1.07934,948.0
1295,1080172,0,1.080172,791.0
1296,1081008,0,1.081008,669.0
1297,1081840,0,1.08184,599.0
1298,1082672,0,1.082672,105.0
1299,1083508,0,1.083508,127.0
1300,1084340,0,1.08434,206.0
1301,1085172,0,1.085172,273.0
1302,1086008,0,1.086008,326.0
1303,1086840,0,1.08684,367.0
1304,1087672,0,1.087672,398.0
1305,1088508,0,1.088508,423.0
1306,1089340,0,1.08934,442.0
1307,1090172,0,1.090172,15.0
1308,1091008,0,1.091008,2.0
1309,1091840,0,1.09184,460.0
1310,1092672,0,1.092672,982.0
1311,1093508,0,1.093508,986.0
1312,1094340,0,1.09434,985.0
1313,1095172,0,1.095172,986.0
1314,1096008,0,1.096008,943.0
1315,1096840,0,1.09684,797.0
1316,1097672,0,1.097672,694.0
1317,1098508,0,1.098508,596.0
1318,1099340,0,1.09934,103.0
1319,1100172,0,1.100172,121.0
1320,1101008,0,1.101008,201.0
1321,1101840,0,1.10184,269.0
1322,1102672,0,1.102672,322.0
1323,1103508,0,1.103508,364.0
1324,1104340,0,1.10434,396.0
1325,1105176,0,1.105176,421.0
1326,1106008,0,1.106008,441.0
1327,1106840,0,1.10684,31.0
1328,1107676,0,1.107676,2.0
1329,1108508,0,1.108508,455.0
1330,1109340,0,1.10934,954.0
1331,1110176,0,1.110176,986.0
1332,1111008,0,1.111008,986.0
1333,1111840,0,1.11184,986.0
1334,1112676,0,1.112676,949.0
1335,1113508,0,1.113508,823.0
1336,1114340,0,1.11434,692.0
1337,1115176,0,1.115176,618.0
1338,1116008,0,1.116008,99.0
1339,1116840,0,1.11684,112.0
1340,1117676,0,1.117676,193.0
1341,1118508,0,1.118508,263.0
1342,1119340,0,1.11934,318.0
1343,1120176,0,1.120176,360.0
1344,1121008,0,1.121008,394.0
1345,1121840,0,1.12184,419.0
1346,1122676,0,1.122676,439.0
1347,1123508,0,1.123508,133.0
1348,1124340,0,1.12434,2.0
1349,1125176,0,1.125176,434.0
1350,1126008,0,1.126008,985.0
1351,1126840,0,1.12684,986.0
1352,1127676,0,1.127676,986.0
1353,1128508,0,1.128508,986.0
1354,1129340,0,1.12934,959.0
1355,1130176,0,1.130176,809.0
1356,1131008,0,1.131008,704.0
1357,1131840,0,1.13184,603.0
1358,1132676,0,1.132676,96.0
1359,1133508,0,1.133508,115.0
1360,1134344,0,1.134344,197.0
1361,1135176,0,1.135176,266.0
1362,1136008,0,1.136008,320.0
1363,1136844,0,1.136844,362.0
1364,1137676,0,1.137676,395.0
1365,1138508,0,1.138508,420.0
1366,1139344,0,1.139344,440.0
1367,1140176,0,1.140176,162.0
1368,1141008,0,1.141008,2.0
1369,1141844,0,1.141844,443.0
1370,1142676,0,1.142676,972.0
1371,1143508,0,1.143508,986.0
1372,1144344,0,1.144344,987.0
1373,1145176,0,1.145176,986.0
1374,1146008,0,1.146008,948.0
1375,1146844,0,1.146844,835.0
1376,1147676,0,1.147676,700.0
1377,1148508,0,1.148508,609.0
1378,1149344,0,1.149344,98.0
1379,1150176,0,1.150176,111.0
1380,1151008,0,1.151008,192.0
1381,1151844,0,1.151844,261.0
1382,1152676,0,1.152676,317.0
1383,1153508,0,1.153508,360.0
1384,1154344,0,1.154344,393.0
1385,1155176,0,1.155176,419.0
1386,1156008,0,1.156008,439.0
1387,1156844,0,1.156844,175.0
1388,1157676,0,1.157676,2.0
1389,1158512,0,1.158512,439.0
1390,1159344,0,1.159344,935.0
1391,1160176,0,1.160176,987.0
1392,1161012,0,1.161012,986.0
1393,1161844,0,1.161844,986.0
1394,1162676,0,1.162676,974.0
1395,1163512,0,1.163512,828.0
1396,1164344,0,1.164344,704.0
1397,1165176,0,1.165176,628.0
1398,1166012,0,1.166012,101.0
1399,1166844,0,1.166844,113.0
1400,1167676,0,1.167676,194.0
1401,1168512,0,1.168512,263.0
1402,1169344,0,1.169344,318.0
1403,1170176,0,1.170176,361.0
1404,1171012,0,1.171012,393.0
1405,1171844,0,1.171844,419.0
1406,1172676,0,1.172676,439.0
1407,1173512,0,1.173512,158.0
1408,1174344,0,1.174344,1.0
1409,1175176,0,1.175176,442.0
1410,1176012,0,1.176012,928.0
1411,1176844,0,1.176844,986.0
1412,1177676,0,1.177676,986.0
1413,1178512,0,1.178512,986.0
1414,1179344,0,1.179344,958.0
1415,1180176,0,1.180176,817.0
1416,1181012,0,1.181012,715.0
1417,1181844,0,1.181844,627.0
1418,1182676,0,1.182676,103.0
1419,1183512,0,1.183512,114.0
1420,1184344,0,1.184344,194.0
1421,1185176,0,1.185176,264.0
1422,1186012,0,1.186012,318.0
1423,1186844,0,1.186844,361.0
1424,1187680,0,1.18768,393.0
1425,1188512,0,1.188512,419.0
1426,1189344,0,1.189344,440.0
1427,1190180,0,1.19018,99.0
1428,1191012,0,1.191012,3.0
1429,1191844,0,1.191844,443.0
1430,1192680,0,1.19268,961.0
1431,1193512,0,1.193512,985.0
1432,1194344,0,1.194344,985.0
1433,1195180,0,1.19518,986.0
1434,1196012,0,1.196012,960.0
1435,1196844,0,1.196844,836.0
1436,1197680,0,1.19768,712.0
1437,1198512,0,1.198512,588.0
1438,1199344,0,1.199344,102.0
1439,1200180,0,1.20018,113.0
1440,1201012,0,1.201012,193.0
1441,1201844,0,1.201844,263.0
1442,1202680,0,1.20268,318.0
1443,1203512,0,1.203512,360.0
1444,1204344,0,1.204344,393.0
1445,1205180,0,1.20518,419.0
1446,1206012,0,1.206012,438.0
1447,1206844,0,1.206844,182.0
1448,1207680,0,1.20768,2.0
1449,1208512,0,1.208512,430.0
1450,1209352,0,1.209352,937.0
1451,1210180,0,1.21018,985.0
1452,1211012,0,1.211012,985.0
1453,1211844,0,1.211844,985.0
1454,1212680,0,1.21268,966.0
1455,1213512,0,1.213512,829.0
1456,1214348,0,1.214348,681.0
1457,1215180,0,1.21518,585.0
1458,1216012,0,1.216012,109.0
1459,1216848,0,1.216848,119.0
1460,1217680,0,1.21768,198.0
1461,1218512,0,1.218512,267.0
1462,1219348,0,1.219348,321.0
1463,1220180,0,1.22018,362.0
1464,1221012,0,1.221012,395.0
1465,1221848,0,1.221848,420.0
1466,1222680,0,1.22268,440.0
1467,1223512,0,1.223512,193.0
1468,1224348,0,1.224348,2.0
1469,1225180,0,1.22518,444.0
1470,1226012,0,1.226012,943.0
1471,1226848,0,1.226848,985.0
1472,1227680,0,1.22768,986.0
1473,1228512,0,1.228512,986.0
1474,1229348,0,1.229348,955.0
1475,1230180,0,1.23018,809.0
1476,1231012,0,1.231012,684.0
1477,1231848,0,1.231848,592.0
1478,1232680,0,1.23268,109.0
1479,1233512,0,1.233512,121.0
1480,1234348,0,1.234348,201.0
1481,1235180,0,1.23518,269.0
1482,1236012,0,1.236012,322.0
1483,1236848,0,1.236848,364.0
1484,1237680,0,1.23768,396.0
1485,1238512,0,1.238512,421.0
1486,1239348,0,1.239348,441.0
1487,1240180,0,1.24018,268.0
1488,1241016,0,1.241016,2.0
1489,1241848,0,1.241848,446.0
1490,1242680,0,1.24268,927.0
1491,1243516,0,1.243516,986.0
1492,1244348,0,1.244348,986.0
1493,1245180,0,1.24518,986.0
1494,1246016,0,1.246016,952.0
1495,1246848,0,1.246848,811.0
1496,1247680,0,1.24768,688.0
1497,1248516,0,1.248516,595.0
1498,1249348,0,1.249348,108.0
1499,1250180,0,1.25018,119.0
1500,1251016,0,1.251016,198.0
1501,1251848,0,1.251848,267.0
1502,1252680,0,1.25268,321.0
1503,1253516,0,1.253516,363.0
1504,1254348,0,1.254348,396.0
1505,1255180,0,1.25518,421.0
1506,1256016,0,1.256016,440.0
1507,1256848,0,1.256848,297.0
1508,1257680,0,1.25768,2.0
1509,1258516,0,1.258516,444.0
1510,1259348,0,1.259348,922.0
1511,1260180,0,1.26018,986.0
1512,1261016,0,1.261016,986.0
1513,1261848,0,1.261848,986.0
1514,1262680,0,1.26268,958.0
1515,1263516,0,1.263516,815.0
1516,1264348,0,1.264348,688.0
1517,1265184,0,1.265184,596.0
1518,1266016,0,1.266016,108.0
1519,1266848,0,1.266848,117.0
1520,1267684,0,1.267684,197.0
1521,1268516,0,1.268516,266.0
1522,1269348,0,1.269348,320.0
1523,1270184,0,1.270184,362.0
1524,1271016,0,1.271016,395.0
1525,1271848,0,1.271848,420.0
1526,1272684,0,1.272684,440.0
1527,1273516,0,1.273516,346.0
1528,1274348,0,1.274348,1.0
1529,1275184,0,1.275184,437.0
1530,1276016,0,1.276016,915.0
1531,1276848,0,1.276848,986.0
1532,1277684,0,1.277684,986.0
1533,1278516,0,1.278516,986.0
1534,1279348,0,1.279348,959.0
1535,1280184,0,1.280184,815.0
1536,1281016,0,1.281016,690.0
1537,1281848,0,1.281848,576.0
1538,1282684,0,1.282684,112.0
1539,1283516,0,1.283516,123.0
1540,1284348,0,1.284348,202.0
1541,1285184,0,1.285184,269.0
1542,1286016,0,1.286016,325.0
1543,1286848,0,1.286848,364.0
1544,1287684,0,1.287684,397.0
1545,1288516,0,1.288516,421.0
1546,1289348,0,1.289348,441.0
1547,1290184,0,1.290184,370.0
1548,1291016,0,1.291016,2.0
1549,1291848,0,1.291848,437.0
1550,1292684,0,1.292684,915.0
1551,1293516,0,1.293516,986.0
1552,1294352,0,1.294352,985.0
1553,1295184,0,1.295184,986.0
1554,1296016,0,1.296016,962.0
1555,1296852,0,1.296852,827.0
1556,1297684,0,1.297684,709.0
1557,1298516,0,1.298516,594.0
1558,1299352,0,1.299352,108.0
1559,1300184,0,1.300184,115.0
1560,1301016,0,1.301016,195.0
1561,1301852,0,1.301852,264.0
1562,1302684,0,1.302684,319.0
1563,1303516,0,1.303516,361.0
1564,1304352,0,1.304352,394.0
1565,1305184,0,1.305184,419.0
1566,1306016,0,1.306016,439.0
1567,1306852,0,1.306852,438.0
1568,1307684,0,1.307684,2.0
1569,1308516,0,1.308516,428.0
1570,1309352,0,1.309352,909.0
1571,1310184,0,1.310184,985.0
1572,1311016,0,1.311016,986.0
1573,1311852,0,1.311852,986.0
1574,1312684,0,1.312684,958.0
1575,1313516,0,1.313516,817.0
1576,1314352,0,1.314352,693.0
1577,1315184,0,1.315184,598.0
1578,1316016,0,1.316016,114.0
1579,1316852,0,1.316852,118.0
1580,1317684,0,1.317684,197.0
1581,1318516,0,1.318516,266.0
1582,1319352,0,1.319352,320.0
1583,1320184,0,1.320184,362.0
1584,1321020,0,1.32102,395.0
1585,1321852,0,1.321852,420.0
1586,1322684,0,1.322684,440.0
1587,1323520,0,1.32352,456.0
1588,1324352,0,1.324352,2.0
1589,1325184,0,1.325184,419.0
1590,1326020,0,1.32602,904.0
1591,1326852,0,1.326852,986.0
1592,1327684,0,1.327684,986.0
1593,1328520,0,1.32852,986.0
1594,1329352,0,1.329352,958.0
1595,1330184,0,1.330184,814.0
1596,1331020,0,1.33102,689.0
1597,1331852,0,1.331852,596.0
1598,1332684,0,1.332684,117.0
1599,1333520,0,1.33352,120.0
1600,1334352,0,1.334352,198.0
1601,1335184,0,1.335184,267.0
1602,1336020,0,1.33602,321.0
1603,1336852,0,1.336852,363.0
1604,1337684,0,1.337684,396.0
1605,1338520,0,1.33852,421.0
1606,1339352,0,1.339352,440.0
1607,1340184,0,1.340184,456.0
1608,1341020,0,1.34102,1.0
1609,1341852,0,1.341852,420.0
1610,1342684,0,1.342684,903.0
1611,1343520,0,1.34352,985.0
1612,1344352,0,1.344352,986.0
1613,1345184,0,1.345184,986.0
1614,1346020,0,1.34602,959.0
1615,1346852,0,1.346852,818.0
1616,1347688,0,1.347688,692.0
1617,1348520,0,1.34852,594.0
1618,1349352,0,1.349352,118.0
1619,1350188,0,1.350188,118.0
1620,1351020,0,1.35102,196.0
1621,1351852,0,1.351852,266.0
1622,1352688,0,1.352688,320.0
1623,1353520,0,1.35352,361.0
1624,1354352,0,1.354352,395.0
1625,1355188,0,1.355188,420.0
1626,1356020,0,1.35602,440.0
1627,1356852,0,1.356852,455.0
1628,1357688,0,1.357688,2.0
1629,1358520,0,1.35852,416.0
1630,1359352,0,1.359352,897.0
1631,1360188,0,1.360188,986.0
1632,1361020,0,1.36102,986.0
1633,1361852,0,1.361852,986.0
1634,1362688,0,1.362688,963.0
1635,1363520,0,1.36352,823.0
1636,1364352,0,1.364352,694.0
1637,1365188,0,1.365188,598.0
1638,1366024,0,1.366024,119.0
1639,1366852,0,1.366852,115.0
1640,1367688,0,1.367688,193.0
1641,1368520,0,1.36852,263.0
1642,1369352,0,1.369352,318.0
1643,1370188,0,1.370188,361.0
1644,1371020,0,1.37102,394.0
1645,1371856,0,1.371856,419.0
1646,1372688,0,1.372688,439.0
1647,1373520,0,1.37352,455.0
1648,1374356,0,1.374356,2.0
1649,1375188,0,1.375188,410.0
1650,1376020,0,1.37602,899.0
1651,1376856,0,1.376856,986.0
1652,1377688,0,1.377688,985.0
1653,1378520,0,1.37852,986.0
1654,1379356,0,1.379356,968.0
1655,1380188,0,1.380188,830.0
1656,1381020,0,1.38102,698.0
1657,1381856,0,1.381856,604.0
1658,1382688,0,1.382688,118.0
1659,1383520,0,1.38352,110.0
1660,1384356,0,1.384356,190.0
1661,1385188,0,1.385188,260.0
1662,1386020,0,1.38602,315.0
1663,1386856,0,1.386856,358.0
1664,1387688,0,1.387688,392.0
1665,1388520,0,1.38852,417.0
1666,1389356,0,1.389356,438.0
1667,1390188,0,1.390188,454.0
1668,1391020,0,1.39102,2.0
1669,1391856,0,1.391856,404.0
1670,1392688,0,1.392688,896.0
1671,1393520,0,1.39352,985.0
1672,1394356,0,1.394356,985.0
1673,1395188,0,1.395188,986.0
1674,1396020,0,1.39602,971.0
1675,1396856,0,1.396856,833.0
1676,1397688,0,1.397688,704.0
1677,1398524,0,1.398524,606.0
1678,1399356,0,1.399356,116.0
1679,1400188,0,1.400188,107.0
1680,1401024,0,1.401024,187.0
1681,1401856,0,1.401856,258.0
1682,1402688,0,1.402688,313.0
1683,1403524,0,1.403524,357.0
1684,1404356,0,1.404356,390.0
1685,1405188,0,1.405188,417.0
1686,1406024,0,1.406024,437.0
1687,1406856,0,1.406856,453.0
1688,1407688,0,1.407688,2.0
1689,1408524,0,1.408524,398.0
1690,1409356,0,1.409356,890.0
1691,1410188,0,1.410188,986.0
1692,1411024,0,1.411024,986.0
1693,1411856,0,1.411856,986.0
1694,1412688,0,1.412688,971.0
1695,1413524,0,1.413524,838.0
1696,1414356,0,1.414356,705.0
1697,1415188,0,1.415188,609.0
1698,1416024,0,1.416024,117.0
1699,1416856,0,1.416856,104.0
1700,1417688,0,1.417688,185.0
1701,1418524,0,1.418524,256.0
1702,1419356,0,1.419356,312.0
1703,1420188,0,1.420188,356.0
1704,1421024,0,1.421024,390.0
1705,1421856,0,1.421856,417.0
1706,1422688,0,1.422688,437.0
1707,1423524,0,1.423524,453.0
1708,1424356,0,1.424356,2.0
1709,1425188,0,1.425188,394.0
1710,1426024,0,1.426024,885.0
1711,1426856,0,1.426856,986.0
1712,1427692,0,1.427692,985.0
1713,1428524,0,1.428524,986.0
1714,1429356,0,1.429356,973.0
1715,1430192,0,1.430192,839.0
1716,1431024,0,1.431024,708.0
1717,1431856,0,1.431856,615.0
1718,1432692,0,1.432692,118.0
1719,1433524,0,1.433524,103.0
1720,1434356,0,1.434356,184.0
1721,1435192,0,1.435192,255.0
1722,1436024,0,1.436024,312.0
1723,1436856,0,1.436856,356.0
1724,1437692,0,1.437692,390.0
1725,1438524,0,1.438524,416.0
1726,1439356,0,1.439356,437.0
1727,1440192,0,1.440192,453.0
1728,1441024,0,1.441024,2.0
1729,1441856,0,1.441856,389.0
1730,1442692,0,1.442692,884.0
1731,1443524,0,1.443524,985.0
1732,1444356,0,1.444356,985.0
1733,1445192,0,1.445192,986.0
1734,1446024,0,1.446024,973.0
1735,1446856,0,1.446856,842.0
1736,1447692,0,1.447692,710.0
1737,1448524,0,1.448524,614.0
1738,1449356,0,1.449356,119.0
1739,1450192,0,1.450192,102.0
1740,1451024,0,1.451024,182.0
1741,1451856,0,1.451856,254.0
1742,1452692,0,1.452692,311.0
1743,1453524,0,1.453524,355.0
1744,1454360,0,1.45436,389.0
1745,1455192,0,1.455192,417.0
1746,1456024,0,1.456024,437.0
1747,1456860,0,1.45686,452.0
1748,1457692,0,1.457692,2.0
1749,1458524,0,1.458524,382.0
1750,1459360,0,1.45936,888.0
1751,1460192,0,1.460192,986.0
1752,1461024,0,1.461024,986.0
1753,1461860,0,1.46186,986.0
1754,1462692,0,1.462692,974.0
1755,1463524,0,1.463524,845.0
1756,1464360,0,1.46436,712.0
1757,1465192,0,1.465192,611.0
1758,1466024,0,1.466024,121.0
1759,1466860,0,1.46686,100.0
1760,1467692,0,1.467692,181.0
1761,1468524,0,1.468524,254.0
1762,1469360,0,1.46936,310.0
1763,1470192,0,1.470192,354.0
1764,1471024,0,1.471024,389.0
1765,1471860,0,1.47186,415.0
1766,1472692,0,1.472692,436.0
1767,1473524,0,1.473524,452.0
1768,1474360,0,1.47436,2.0
1769,1475192,0,1.475192,376.0
1770,1476024,0,1.476024,882.0
1771,1476860,0,1.47686,985.0
1772,1477692,0,1.477692,986.0
1773,1478524,0,1.478524,986.0
1774,1479360,0,1.47936,973.0
1775,1480192,0,1.480192,841.0
1776,1481028,0,1.481028,708.0
1777,1481860,0,1.48186,610.0
1778,1482692,0,1.482692,129.0
1779,1483528,0,1.483528,101.0
1780,1484360,0,1.48436,181.0
1781,1485192,0,1.485192,254.0
1782,1486028,0,1.486028,310.0
1783,1486860,0,1.48686,354.0
1784,1487692,0,1.487692,388.0
1785,1488528,0,1.488528,416.0
1786,1489360,0,1.48936,436.0
1787,1490192,0,1.490192,452.0
1788,1491028,0,1.491028,2.0
1789,1491860,0,1.49186,377.0
1790,1492692,0,1.492692,882.0
1791,1493528,0,1.493528,986.0
1792,1494360,0,1.49436,986.0
1793,1495192,0,1.495192,985.0
1794,1496028,0,1.496028,975.0
1795,1496860,0,1.49686,846.0
1796,1497692,0,1.497692,711.0
1797,1498528,0,1.498528,614.0
1798,1499360,0,1.49936,127.0
1799,1500192,0,1.500192,98.0
1800,1501028,0,1.501028,179.0
1801,1501860,0,1.50186,252.0
1802,1502692,0,1.502692,309.0
1803,1503528,0,1.503528,353.0
1804,1504360,0,1.50436,389.0
1805,1505192,0,1.505192,415.0
1806,1506028,0,1.506028,436.0
1807,1506860,0,1.50686,452.0
1808,1507696,0,1.507696,2.0
1809,1508528,0,1.508528,370.0
1810,1509360,0,1.50936,871.0
1811,1510196,0,1.510196,986.0
1812,1511028,0,1.511028,986.0
1813,1511860,0,1.51186,985.0
1814,1512696,0,1.512696,974.0
1815,1513528,0,1.513528,844.0
1816,1514360,0,1.51436,710.0
1817,1515196,0,1.515196,611.0
1818,1516028,0,1.516028,131.0
1819,1516860,0,1.51686,100.0
1820,1517696,0,1.517696,180.0
1821,1518528,0,1.518528,253.0
1822,1519360,0,1.51936,309.0
1823,1520196,0,1.520196,354.0
1824,1521028,0,1.521028,389.0
1825,1521860,0,1.52186,415.0
1826,1522696,0,1.522696,436.0
1827,1523528,0,1.523528,453.0
1828,1524360,0,1.52436,2.0
1829,1525196,0,1.525196,364.0
1830,1526028,0,1.526028,866.0
1831,1526860,0,1.52686,986.0
1832,1527696,0,1.527696,986.0
1833,1528528,0,1.528528,986.0
1834,1529360,0,1.52936,975.0
1835,1530196,0,1.530196,845.0
1836,1531028,0,1.531028,711.0
1837,1531864,0,1.531864,612.0
1838,1532696,0,1.532696,133.0
1839,1533528,0,1.533528,100.0
1840,1534364,0,1.534364,180.0
1841,1535196,0,1.535196,252.0
1842,1536028,0,1.536028,309.0
1843,1536864,0,1.536864,354.0
1844,1537696,0,1.537696,388.0
1845,1538528,0,1.538528,415.0
1846,1539364,0,1.539364,436.0
1847,1540196,0,1.540196,452.0
1848,1541028,0,1.541028,2.0
1849,1541864,0,1.541864,363.0
1850,1542696,0,1.542696,859.0
1851,1543528,0,1.543528,986.0
1852,1544364,0,1.544364,985.0
1853,1545196,0,1.545196,986.0
1854,1546028,0,1.546028,977.0
1855,1546864,0,1.546864,847.0
1856,1547696,0,1.547696,714.0
1857,1548528,0,1.548528,616.0
1858,1549364,0,1.549364,134.0
1859,1550196,0,1.550196,98.0
1860,1551028,0,1.551028,179.0
1861,1551864,0,1.551864,251.0
1862,1552696,0,1.552696,308.0
1863,1553528,0,1.553528,353.0
1864,1554364,0,1.554364,388.0
1865,1555196,0,1.555196,415.0
1866,1556028,0,1.556028,436.0
1867,1556864,0,1.556864,452.0
1868,1557696,0,1.557696,2.0
1869,1558536,0,1.558536,352.0
1870,1559364,0,1.559364,854.0
1871,1560196,0,1.560196,986.0
1872,1561032,0,1.561032,986.0
1873,1561864,0,1.561864,986.0
1874,1562696,0,1.562696,978.0
1875,1563532,0,1.563532,849.0
1876,1564364,0,1.564364,716.0
1877,1565196,0,1.565196,615.0
1878,1566032,0,1.566032,137.0
1879,1566864,0,1.566864,99.0
1880,1567696,0,1.567696,179.0
1881,1568532,0,1.568532,251.0
1882,1569364,0,1.569364,308.0
1883,1570196,0,1.570196,353.0
1884,1571032,0,1.571032,388.0
1885,1571864,0,1.571864,414.0
1886,1572696,0,1.572696,436.0
1887,1573532,0,1.573532,452.0
1888,1574364,0,1.574364,2.0
1889,1575196,0,1.575196,345.0
1890,1576032,0,1.576032,848.0
1891,1576864,0,1.576864,985.0
1892,1577696,0,1.577696,986.0
1893,1578532,0,1.578532,986.0
1894,1579364,0,1.579364,979.0
1895,1580196,0,1.580196,852.0
1896,1581032,0,1.581032,718.0
1897,1581864,0,1.581864,620.0
1898,1582696,0,1.582696,141.0
1899,1583532,0,1.583532,98.0
1900,1584364,0,1.584364,178.0
1901,1585196,0,1.585196,250.0
1902,1586032,0,1.586032,308.0
1903,1586864,0,1.586864,353.0
1904,1587700,0,1.5877,387.0
1905,1588532,0,1.588532,414.0
1906,1589364,0,1.589364,435.0
1907,1590200,0,1.5902,451.0
1908,1591032,0,1.591032,2.0
1909,1591864,0,1.591864,335.0
1910,1592700,0,1.5927,840.0
1911,1593532,0,1.593532,986.0
1912,1594364,0,1.594364,986.0
1913,1595200,0,1.5952,986.0
1914,1596032,0,1.596032,980.0
1915,1596864,0,1.596864,853.0
1916,1597700,0,1.5977,720.0
1917,1598532,0,1.598532,620.0
1918,1599364,0,1.599364,143.0
1919,1600200,0,1.6002,97.0
1920,1601032,0,1.601032,177.0
1921,1601864,0,1.601864,250.0
1922,1602700,0,1.6027,307.0
1923,1603532,0,1.603532,352.0
1924,1604364,0,1.604364,388.0
1925,1605200,0,1.6052,415.0
1926,1606032,0,1.606032,435.0
1927,1606864,0,1.606864,451.0
1928,1607700,0,1.6077,2.0
1929,1608532,0,1.608532,332.0
1930,1609364,0,1.609364,839.0
1931,1610200,0,1.6102,986.0
1932,1611032,0,1.611032,986.0
1933,1611868,0,1.611868,986.0
1934,1612700,0,1.6127,981.0
1935,1613532,0,1.613532,855.0
1936,1614368,0,1.614368,721.0
1937,1615200,0,1.6152,620.0
1938,1616032,0,1.616032,146.0
1939,1616868,0,1.616868,96.0
1940,1617700,0,1.6177,176.0
1941,1618532,0,1.618532,249.0
1942,1619368,0,1.619368,307.0
1943,1620200,0,1.6202,352.0
1944,1621032,0,1.621032,387.0
1945,1621868,0,1.621868,414.0
1946,1622700,0,1.6227,434.0
1947,1623532,0,1.623532,451.0
1948,1624368,0,1.624368,1.0
1949,1625200,0,1.6252,331.0
1950,1626032,0,1.626032,838.0
1951,1626868,0,1.626868,986.0
1952,1627700,0,1.6277,985.0
1953,1628532,0,1.628532,986.0
1954,1629368,0,1.629368,980.0
1955,1630200,0,1.6302,856.0
1956,1631032,0,1.631032,721.0
1957,1631868,0,1.631868,621.0
1958,1632700,0,1.6327,148.0
1959,1633532,0,1.633532,95.0
1960,1634368,0,1.634368,175.0
1961,1635200,0,1.6352,248.0
1962,1636032,0,1.636032,306.0
1963,1636868,0,1.636868,352.0
1964,1637700,0,1.6377,386.0
1965,1638536,0,1.638536,413.0
1966,1639368,0,1.639368,435.0
1967,1640200,0,1.6402,451.0
1968,1641036,0,1.641036,1.0
1969,1641868,0,1.641868,326.0
1970,1642700,0,1.6427,834.0
1971,1643536,0,1.643536,986.0
1972,1644368,0,1.644368,985.0
1973,1645200,0,1.6452,986.0
1974,1646036,0,1.646036,980.0
1975,1646868,0,1.646868,855.0
1976,1647700,0,1.6477,720.0
1977,1648536,0,1.648536,624.0
1978,1649368,0,1.649368,150.0
1979,1650200,0,1.6502,95.0
1980,1651036,0,1.651036,174.0
1981,1651868,0,1.651868,248.0
1982,1652700,0,1.6527,306.0
1983,1653536,0,1.653536,352.0
1984,1654368,0,1.654368,386.0
1985,1655200,0,1.6552,413.0
1986,1656036,0,1.656036,435.0
1987,1656868,0,1.656868,451.0
1988,1657700,0,1.6577,2.0
1989,1658536,0,1.658536,326.0
1990,1659368,0,1.659368,830.0
1991,1660200,0,1.6602,986.0
1992,1661036,0,1.661036,986.0
1993,1661868,0,1.661868,986.0
1994,1662700,0,1.6627,982.0
1995,1663536,0,1.663536,862.0
1996,1664368,0,1.664368,726.0
1997,1665204,0,1.665204,625.0
1998,1666036,0,1.666036,151.0
1999,1666868,0,1.666868,91.0
2000,1667704,0,1.667704,171.0
2001,1668536,0,1.668536,245.0
2002,1669368,0,1.669368,304.0
2003,1670204,0,1.670204,349.0
2004,1671036,0,1.671036,385.0
2005,1671868,0,1.671868,413.0
2006,1672704,0,1.672704,434.0
2007,1673536,0,1.673536,450.0
2008,1674368,0,1.674368,2.0
2009,1675204,0,1.675204,320.0
2010,1676036,0,1.676036,826.0
2011,1676868,0,1.676868,986.0
2012,1677704,0,1.677704,985.0
2013,1678536,0,1.678536,986.0
2014,1679368,0,1.679368,983.0
2015,1680204,0,1.680204,863.0
2016,1681036,0,1.681036,730.0
2017,1681868,0,1.681868,629.0
2018,1682704,0,1.682704,154.0
2019,1683536,0,1.683536,90.0
2020,1684368,0,1.684368,170.0
2021,1685204,0,1.685204,244.0
2022,1686036,0,1.686036,303.0
2023,1686868,0,1.686868,349.0
2024,1687704,0,1.687704,385.0
2025,1688536,0,1.688536,413.0
2026,1689368,0,1.689368,434.0
2027,1690204,0,1.690204,450.0
2028,1691036,0,1.691036,2.0
2029,1691868,0,1.691868,294.0
2030,1692704,0,1.692704,817.0
2031,1693536,0,1.693536,985.0
2032,1694372,0,1.694372,986.0
2033,1695204,0,1.695204,986.0
2034,1696036,0,1.696036,984.0
2035,1696872,0,1.696872,866.0
2036,1697704,0,1.697704,728.0
2037,1698536,0,1.698536,626.0
2038,1699372,0,1.699372,162.0
2039,1700204,0,1.700204,94.0
2040,1701036,0,1.701036,173.0
2041,1701872,0,1.701872,247.0
2042,1702704,0,1.702704,305.0
2043,1703536,0,1.703536,350.0
2044,1704372,0,1.704372,386.0
2045,1705204,0,1.705204,414.0
2046,1706036,0,1.706036,434.0
2047,1706872,0,1.706872,451.0
2048,1707704,0,1.707704,2.0
2049,1708536,0,1.708536,309.0
2050,1709372,0,1.709372,821.0
2051,1710204,0,1.710204,986.0
2052,1711036,0,1.711036,986.0
2053,1711872,0,1.711872,986.0
2054,1712704,0,1.712704,984.0
2055,1713536,0,1.713536,868.0
2056,1714372,0,1.714372,732.0
2057,1715208,0,1.715208,630.0
2058,1716036,0,1.716036,160.0
2059,1716872,0,1.716872,88.0
2060,1717704,0,1.717704,167.0
2061,1718540,0,1.71854,242.0
2062,1719372,0,1.719372,302.0
2063,1720204,0,1.720204,348.0
2064,1721040,0,1.72104,384.0
2065,1721872,0,1.721872,411.0
2066,1722704,0,1.722704,433.0
2067,1723540,0,1.72354,450.0
2068,1724372,0,1.724372,2.0
2069,1725204,0,1.725204,304.0
2070,1726040,0,1.72604,817.0
2071,1726872,0,1.726872,985.0
2072,1727704,0,1.727704,985.0
2073,1728540,0,1.72854,986.0
2074,1729372,0,1.729372,984.0
2075,1730204,0,1.730204,871.0
2076,1731040,0,1.73104,731.0
2077,1731872,0,1.731872,626.0
2078,1732704,0,1.732704,163.0
2079,1733540,0,1.73354,88.0
2080,1734372,0,1.734372,168.0
2081,1735204,0,1.735204,242.0
2082,1736040,0,1.73604,302.0
2083,1736872,0,1.736872,348.0
2084,1737704,0,1.737704,384.0
2085,1738540,0,1.73854,412.0
2086,1739372,0,1.739372,433.0
2087,1740204,0,1.740204,451.0
2088,1741040,0,1.74104,2.0
2089,1741872,0,1.741872,296.0
2090,1742704,0,1.742704,812.0
2091,1743540,0,1.74354,986.0
2092,1744372,0,1.744372,986.0
2093,1745208,0,1.745208,986.0
2094,1746040,0,1.74604,984.0
2095,1746872,0,1.746872,874.0
2096,1747708,0,1.747708,734.0
2097,1748540,0,1.74854,630.0
2098,1749372,0,1.749372,167.0
2099,1750208,0,1.750208,85.0
2100,1751040,0,1.75104,165.0
2101,1751872,0,1.751872,240.0
2102,1752708,0,1.752708,299.0
2103,1753540,0,1.75354,346.0
2104,1754372,0,1.754372,383.0
2105,1755208,0,1.755208,411.0
2106,1756040,0,1.75604,432.0
2107,1756872,0,1.756872,449.0
2108,1757708,0,1.757708,1.0
2109,1758540,0,1.75854,289.0
2110,1759372,0,1.759372,813.0
2111,1760208,0,1.760208,986.0
2112,1761040,0,1.76104,985.0
2113,1761872,0,1.761872,985.0
2114,1762708,0,1.762708,985.0
2115,1763540,0,1.76354,875.0
2116,1764372,0,1.764372,736.0
2117,1765208,0,1.765208,628.0
2118,1766040,0,1.76604,170.0
2119,1766872,0,1.766872,86.0
2120,1767708,0,1.767708,166.0
2121,1768540,0,1.76854,241.0
2122,1769372,0,1.769372,300.0
2123,1770208,0,1.770208,347.0
2124,1771040,0,1.77104,382.0
2125,1771876,0,1.771876,411.0
2126,1772708,0,1.772708,433.0
2127,1773540,0,1.77354,449.0
2128,1774376,0,1.774376,1.0
2129,1775208,0,1.775208,288.0
2130,1776040,0,1.77604,809.0
2131,1776876,0,1.776876,986.0
2132,1777708,0,1.777708,985.0
2133,1778540,0,1.77854,985.0
2134,1779376,0,1.779376,985.0
2135,1780208,0,1.780208,875.0
2136,1781040,0,1.78104,738.0
2137,1781876,0,1.781876,632.0
2138,1782708,0,1.782708,173.0
2139,1783540,0,1.78354,85.0
2140,1784376,0,1.784376,165.0
2141,1785208,0,1.785208,239.0
2142,1786040,0,1.78604,300.0
2143,1786876,0,1.786876,346.0
2144,1787708,0,1.787708,383.0
2145,1788540,0,1.78854,411.0
2146,1789376,0,1.789376,433.0
2147,1790208,0,1.790208,449.0
2148,1791040,0,1.79104,2.0
2149,1791876,0,1.791876,287.0
2150,1792708,0,1.792708,794.0
2151,1793540,0,1.79354,986.0
2152,1794376,0,1.794376,985.0
2153,1795208,0,1.795208,986.0
2154,1796040,0,1.79604,985.0
2155,1796876,0,1.796876,879.0
2156,1797708,0,1.797708,738.0
2157,1798540,0,1.79854,633.0
2158,1799376,0,1.799376,180.0
2159,1800208,0,1.800208,83.0
2160,1801044,0,1.801044,163.0
2161,1801876,0,1.801876,238.0
2162,1802708,0,1.802708,298.0
2163,1803544,0,1.803544,345.0
2164,1804376,0,1.804376,381.0
2165,1805208,0,1.805208,410.0
2166,1806044,0,1.806044,432.0
2167,1806876,0,1.806876,449.0
2168,1807708,0,1.807708,2.0
2169,1808544,0,1.808544,282.0
2170,1809376,0,1.809376,797.0
2171,1810208,0,1.810208,986.0
2172,1811044,0,1.811044,986.0
2173,1811876,0,1.811876,986.0
2174,1812708,0,1.812708,986.0
2175,1813544,0,1.813544,881.0
2176,1814376,0,1.814376,744.0
2177,1815208,0,1.815208,637.0
2178,1816044,0,1.816044,177.0
2179,1816876,0,1.816876,80.0
2180,1817708,0,1.817708,160.0
2181,1818544,0,1.818544,235.0
2182,1819376,0,1.819376,297.0
2183,1820208,0,1.820208,344.0
2184,1821044,0,1.821044,380.0
2185,1821876,0,1.821876,409.0
2186,1822708,0,1.822708,432.0
2187,1823544,0,1.823544,449.0
2188,1824376,0,1.824376,1.0
2189,1825208,0,1.825208,279.0
2190,1826044,0,1.826044,786.0
2191,1826876,0,1.826876,985.0
2192,1827712,0,1.827712,986.0
2193,1828544,0,1.828544,986.0
2194,1829376,0,1.829376,986.0
2195,1830212,0,1.830212,884.0
2196,1831044,0,1.831044,745.0
2197,1831876,0,1.831876,638.0
2198,1832712,0,1.832712,185.0
2199,1833544,0,1.833544,79.0
2200,1834376,0,1.834376,157.0
2201,1835212,0,1.835212,234.0
2202,1836044,0,1.836044,296.0
2203,1836876,0,1.836876,343.0
2204,1837712,0,1.837712,380.0
2205,1838544,0,1.838544,410.0
2206,1839376,0,1.839376,431.0
2207,1840212,0,1.840212,448.0
2208,1841044,0,1.841044,2.0
2209,1841876,0,1.841876,273.0
2210,1842712,0,1.842712,787.0
2211,1843544,0,1.843544,985.0
2212,1844376,0,1.844376,986.0
2213,1845212,0,1.845212,985.0
2214,1846044,0,1.846044,986.0
2215,1846876,0,1.846876,887.0
2216,1847712,0,1.847712,749.0
2217,1848544,0,1.848544,638.0
2218,1849376,0,1.849376,189.0
2219,1850212,0,1.850212,76.0
2220,1851044,0,1.851044,156.0
2221,1851876,0,1.851876,233.0
2222,1852712,0,1.852712,294.0
2223,1853544,0,1.853544,342.0
2224,1854380,0,1.85438,379.0
2225,1855212,0,1.855212,408.0
2226,1856044,0,1.856044,430.0
2227,1856880,0,1.85688,447.0
2228,1857712,0,1.857712,2.0
2229,1858544,0,1.858544,266.0
2230,1859380,0,1.85938,782.0
2231,1860212,0,1.860212,986.0
2232,1861044,0,1.861044,986.0
2233,1861880,0,1.86188,986.0
2234,1862712,0,1.862712,986.0
2235,1863544,0,1.863544,892.0
2236,1864380,0,1.86438,749.0
2237,1865212,0,1.865212,640.0
2238,1866044,0,1.866044,193.0
2239,1866880,0,1.86688,75.0
2240,1867712,0,1.867712,154.0
2241,1868544,0,1.868544,231.0
2242,1869380,0,1.86938,293.0
2243,1870212,0,1.870212,341.0
2244,1871044,0,1.871044,379.0
2245,1871880,0,1.87188,407.0
2246,1872712,0,1.872712,430.0
2247,1873544,0,1.873544,447.0
2248,1874380,0,1.87438,2.0
2249,1875212,0,1.875212,256.0
2250,1876044,0,1.876044,778.0
2251,1876880,0,1.87688,986.0
2252,1877712,0,1.877712,986.0
2253,1878544,0,1.878544,986.0
2254,1879380,0,1.87938,986.0
2255,1880212,0,1.880212,905.0
2256,1881048,0,1.881048,763.0
2257,1881880,0,1.88188,652.0
2258,1882712,0,1.882712,200.0
2259,1883548,0,1.883548,67.0
2260,1884380,0,1.88438,146.0
2261,1885212,0,1.885212,226.0
2262,1886048,0,1.886048,288.0
2263,1886880,0,1.88688,337.0
2264,1887712,0,1.887712,376.0
2265,1888548,0,1.888548,405.0
2266,1889380,0,1.88938,428.0
2267,1890212,0,1.890212,446.0
2268,1891048,0,1.891048,2.0
2269,1891880,0,1.89188,247.0
2270,1892712,0,1.892712,770.0
2271,1893548,0,1.893548,986.0
2272,1894380,0,1.89438,986.0
2273,1895212,0,1.895212,986.0
2274,1896048,0,1.896048,986.0
2275,1896880,0,1.89688,892.0
2276,1897712,0,1.897712,769.0
2277,1898548,0,1.898548,662.0
2278,1899380,0,1.89938,207.0
2279,1900212,0,1.900212,66.0
2280,1901048,0,1.901048,145.0
2281,1901880,0,1.90188,224.0
2282,1902712,0,1.902712,287.0
2283,1903548,0,1.903548,337.0
2284,1904380,0,1.90438,375.0
2285,1905212,0,1.905212,405.0
2286,1906048,0,1.906048,428.0
2287,1906880,0,1.90688,446.0
2288,1907720,0,1.90772,2.0
2289,1908548,0,1.908548,247.0
2290,1909380,0,1.90938,772.0
2291,1910216,0,1.910216,986.0
2292,1911048,0,1.911048,986.0
2293,1911880,0,1.91188,986.0
2294,1912716,0,1.912716,986.0
2295,1913548,0,1.913548,920.0
2296,1914380,0,1.91438,778.0
2297,1915216,0,1.915216,663.0
2298,1916048,0,1.916048,205.0
2299,1916880,0,1.91688,57.0
2300,1917716,0,1.917716,138.0
2301,1918548,0,1.918548,218.0
2302,1919380,0,1.91938,282.0
2303,1920216,0,1.920216,333.0
2304,1921048,0,1.921048,372.0
2305,1921880,0,1.92188,402.0
2306,1922716,0,1.922716,426.0
2307,1923548,0,1.923548,445.0
2308,1924380,0,1.92438,2.0
2309,1925216,0,1.925216,247.0
2310,1926048,0,1.926048,773.0
2311,1926880,0,1.92688,985.0
2312,1927716,0,1.927716,986.0
2313,1928548,0,1.928548,986.0
2314,1929380,0,1.92938,986.0
2315,1930216,0,1.930216,925.0
2316,1931048,0,1.931048,784.0
2317,1931880,0,1.93188,665.0
2318,1932716,0,1.932716,203.0
2319,1933548,0,1.933548,52.0
2320,1934384,0,1.934384,134.0
2321,1935216,0,1.935216,215.0
2322,1936048,0,1.936048,280.0
2323,1936884,0,1.936884,331.0
2324,1937716,0,1.937716,370.0
2325,1938548,0,1.938548,401.0
2326,1939384,0,1.939384,425.0
2327,1940216,0,1.940216,443.0
2328,1941048,0,1.941048,2.0
2329,1941884,0,1.941884,246.0
2330,1942716,0,1.942716,771.0
2331,1943548,0,1.943548,986.0
2332,1944384,0,1.944384,986.0
2333,1945216,0,1.945216,986.0
2334,1946048,0,1.946048,986.0
2335,1946884,0,1.946884,928.0
2336,1947716,0,1.947716,786.0
2337,1948548,0,1.948548,668.0
2338,1949384,0,1.949384,206.0
2339,1950216,0,1.950216,50.0
2340,1951048,0,1.951048,132.0
2341,1951884,0,1.951884,214.0
2342,1952716,0,1.952716,279.0
2343,1953548,0,1.953548,329.0
2344,1954384,0,1.954384,370.0
2345,1955216,0,1.955216,401.0
2346,1956048,0,1.956048,425.0
2347,1956884,0,1.956884,444.0
2348,1957716,0,1.957716,2.0
2349,1958552,0,1.958552,245.0
2350,1959384,0,1.959384,770.0
2351,1960216,0,1.960216,986.0
2352,1961052,0,1.961052,986.0
2353,1961884,0,1.961884,985.0
2354,1962716,0,1.962716,986.0
2355,1963552,0,1.963552,934.0
2356,1964384,0,1.964384,793.0
2357,1965216,0,1.965216,673.0
2358,1966052,0,1.966052,210.0
2359,1966884,0,1.966884,47.0
2360,1967716,0,1.967716,128.0
2361,1968552,0,1.968552,210.0
2362,1969384,0,1.969384,276.0
2363,1970216,0,1.970216,327.0
2364,1971052,0,1.971052,368.0
2365,1971884,0,1.971884,399.0
2366,1972716,0,1.972716,424.0
2367,1973552,0,1.973552,443.0
2368,1974384,0,1.974384,2.0
2369,1975216,0,1.975216,242.0
2370,1976052,0,1.976052,769.0
2371,1976884,0,1.976884,986.0
2372,1977716,0,1.977716,986.0
2373,1978552,0,1.978552,986.0
2374,1979384,0,1.979384,986.0
2375,1980216,0,1.980216,937.0
2376,1981052,0,1.981052,797.0
2377,1981884,0,1.981884,672.0
2378,1982716,0,1.982716,211.0
2379,1983552,0,1.983552,46.0
2380,1984384,0,1.984384,126.0
2381,1985220,0,1.98522,209.0
2382,1986052,0,1.986052,275.0
2383,1986884,0,1.986884,327.0
2384,1987720,0,1.98772,368.0
2385,1988552,0,1.988552,399.0
2386,1989384,0,1.989384,424.0
2387,1990220,0,1.99022,443.0
2388,1991052,0,1.991052,2.0
2389,1991884,0,1.991884,246.0
2390,1992720,0,1.99272,770.0
2391,1993552,0,1.993552,986.0
2392,1994384,0,1.994384,985.0
2393,1995220,0,1.99522,985.0
2394,1996052,0,1.996052,986.0
2395,1996884,0,1.996884,936.0
2396,1997720,0,1.99772,796.0
2397,1998552,0,1.998552,662.0
2398,1999384,0,1.999384,206.0
2399,2000220,0,2.00022,47.0
2400,2001052,0,2.001052,129.0
2401,2001884,0,2.001884,211.0
2402,2002720,0,2.00272,277.0
2403,2003552,0,2.003552,329.0
2404,2004384,0,2.004384,369.0
2405,2005220,0,2.00522,400.0
2406,2006052,0,2.006052,424.0
2407,2006884,0,2.006884,443.0
2408,2007720,0,2.00772,2.0
2409,2008552,0,2.008552,241.0
2410,2009384,0,2.009384,768.0
2411,2010220,0,2.01022,985.0
2412,2011052,0,2.011052,985.0
2413,2011884,0,2.011884,985.0
2414,2012720,0,2.01272,986.0
2415,2013552,0,2.013552,940.0
2416,2014388,0,2.014388,802.0
2417,2015220,0,2.01522,676.0
2418,2016052,0,2.016052,214.0
2419,2016888,0,2.016888,41.0
2420,2017720,0,2.01772,123.0
2421,2018552,0,2.018552,207.0
2422,2019388,0,2.019388,274.0
2423,2020220,0,2.02022,326.0
2424,2021052,0,2.021052,366.0
2425,2021888,0,2.021888,398.0
2426,2022720,0,2.02272,423.0
2427,2023552,0,2.023552,442.0
2428,2024388,0,2.024388,2.0
2429,2025220,0,2.02522,237.0
2430,2026052,0,2.026052,762.0
2431,2026888,0,2.026888,986.0
2432,2027720,0,2.02772,985.0
2433,2028552,0,2.028552,986.0
2434,2029388,0,2.029388,986.0
2435,2030220,0,2.03022,942.0
2436,2031052,0,2.031052,800.0
2437,2031888,0,2.031888,677.0
2438,2032720,0,2.03272,221.0
2439,2033552,0,2.033552,41.0
2440,2034388,0,2.034388,122.0
2441,2035220,0,2.03522,206.0
2442,2036052,0,2.036052,273.0
2443,2036888,0,2.036888,325.0
2444,2037720,0,2.03772,366.0
2445,2038556,0,2.038556,398.0
2446,2039388,0,2.039388,423.0
2447,2040220,0,2.04022,442.0
2448,2041056,0,2.041056,2.0
2449,2041888,0,2.041888,232.0
2450,2042720,0,2.04272,759.0
2451,2043556,0,2.043556,986.0
2452,2044388,0,2.044388,985.0
2453,2045220,0,2.04522,986.0
2454,2046056,0,2.046056,986.0
2455,2046888,0,2.046888,940.0
2456,2047720,0,2.04772,801.0
2457,2048556,0,2.048556,679.0
2458,2049388,0,2.049388,226.0
2459,2050220,0,2.05022,41.0
2460,2051056,0,2.051056,122.0
2461,2051888,0,2.051888,205.0
2462,2052720,0,2.05272,273.0
2463,2053556,0,2.053556,325.0
2464,2054388,0,2.054388,366.0
2465,2055220,0,2.05522,398.0
2466,2056056,0,2.056056,422.0
2467,2056888,0,2.056888,442.0
2468,2057720,0,2.05772,2.0
2469,2058556,0,2.058556,224.0
2470,2059388,0,2.059388,754.0
2471,2060220,0,2.06022,985.0
2472,2061056,0,2.061056,985.0
2473,2061888,0,2.061888,986.0
2474,2062720,0,2.06272,985.0
2475,2063556,0,2.063556,944.0
2476,2064392,0,2.064392,802.0
2477,2065220,0,2.06522,677.0
2478,2066056,0,2.066056,234.0
2479,2066888,0,2.066888,41.0
2480,2067724,0,2.067724,121.0
2481,2068556,0,2.068556,205.0
2482,2069388,0,2.069388,272.0
2483,2070224,0,2.070224,325.0
2484,2071056,0,2.071056,366.0
2485,2071888,0,2.071888,398.0
2486,2072724,0,2.072724,422.0
2487,2073556,0,2.073556,442.0
2488,2074388,0,2.074388,2.0
2489,2075224,0,2.075224,218.0
2490,2076056,0,2.076056,749.0
2491,2076888,0,2.076888,986.0
2492,2077724,0,2.077724,986.0
2493,2078556,0,2.078556,986.0
2494,2079388,0,2.079388,985.0
2495,2080224,0,2.080224,942.0
2496,2081056,0,2.081056,803.0
2497,2081888,0,2.081888,679.0
2498,2082724,0,2.082724,240.0
2499,2083556,0,2.083556,41.0
2500,2084388,0,2.084388,120.0
2501,2085224,0,2.085224,204.0
2502,2086056,0,2.086056,272.0
2503,2086888,0,2.086888,324.0
2504,2087724,0,2.087724,365.0
2505,2088556,0,2.088556,397.0
2506,2089388,0,2.089388,422.0
2507,2090224,0,2.090224,441.0
2508,2091056,0,2.091056,1.0
2509,2091888,0,2.091888,207.0
2510,2092724,0,2.092724,743.0
2511,2093556,0,2.093556,986.0
2512,2094392,0,2.094392,986.0
2513,2095224,0,2.095224,986.0
2514,2096056,0,2.096056,986.0
2515,2096892,0,2.096892,939.0
2516,2097724,0,2.097724,797.0
2517,2098556,0,2.098556,678.0
2518,2099392,0,2.099392,250.0
2519,2100224,0,2.100224,43.0
2520,2101056,0,2.101056,122.0
2521,2101892,0,2.101892,205.0
2522,2102724,0,2.102724,272.0
2523,2103556,0,2.103556,326.0
2524,2104392,0,2.104392,366.0
2525,2105224,0,2.105224,398.0
2526,2106056,0,2.106056,423.0
2527,2106892,0,2.106892,442.0
2528,2107724,0,2.107724,2.0
2529,2108556,0,2.108556,210.0
2530,2109392,0,2.109392,747.0
2531,2110224,0,2.110224,985.0
2532,2111056,0,2.111056,985.0
2533,2111892,0,2.111892,985.0
2534,2112724,0,2.112724,986.0
2535,2113556,0,2.113556,949.0
2536,2114392,0,2.114392,806.0
2537,2115224,0,2.115224,686.0
2538,2116056,0,2.116056,255.0
2539,2116892,0,2.116892,38.0
2540,2117724,0,2.117724,116.0
2541,2118556,0,2.118556,201.0
2542,2119392,0,2.119392,269.0
2543,2120224,0,2.120224,322.0
2544,2121060,0,2.12106,364.0
2545,2121892,0,2.121892,396.0
2546,2122724,0,2.122724,421.0
2547,2123560,0,2.12356,441.0
2548,2124392,0,2.124392,2.0
2549,2125224,0,2.125224,204.0
2550,2126060,0,2.12606,742.0
2551,2126892,0,2.126892,986.0
2552,2127724,0,2.127724,986.0
2553,2128560,0,2.12856,985.0
2554,2129392,0,2.129392,986.0
2555,2130224,0,2.130224,949.0
2556,2131060,0,2.13106,808.0
2557,2131892,0,2.131892,686.0
2558,2132724,0,2.132724,263.0
2559,2133560,0,2.13356,36.0
2560,2134392,0,2.134392,114.0
2561,2135224,0,2.135224,200.0
2562,2136060,0,2.13606,268.0
2563,2136892,0,2.136892,321.0
2564,2137724,0,2.137724,364.0
2565,2138560,0,2.13856,395.0
2566,2139392,0,2.139392,420.0
2567,2140224,0,2.140224,440.0
2568,2141060,0,2.14106,2.0
2569,2141892,0,2.141892,202.0
2570,2142724,0,2.142724,735.0
2571,2143560,0,2.14356,986.0
2572,2144392,0,2.144392,986.0
2573,2145224,0,2.145224,986.0
2574,2146060,0,2.14606,986.0
2575,2146892,0,2.146892,949.0
2576,2147728,0,2.147728,807.0
2577,2148560,0,2.14856,687.0
2578,2149392,0,2.149392,267.0
2579,2150228,0,2.150228,37.0
2580,2151060,0,2.15106,115.0
2581,2151892,0,2.151892,200.0
2582,2152728,0,2.152728,268.0
2583,2153560,0,2.15356,322.0
2584,2154392,0,2.154392,364.0
2585,2155228,0,2.155228,395.0
2586,2156060,0,2.15606,420.0
2587,2156892,0,2.156892,440.0
2588,2157728,0,2.157728,2.0
2589,2158560,0,2.15856,192.0
2590,2159392,0,2.159392,728.0
2591,2160228,0,2.160228,986.0
2592,2161060,0,2.16106,986.0
2593,2161892,0,2.161892,986.0
2594,2162728,0,2.162728,986.0
2595,2163560,0,2.16356,947.0
2596,2164392,0,2.164392,805.0
2597,2165228,0,2.165228,685.0
2598,2166060,0,2.16606,276.0
2599,2166892,0,2.166892,39.0
2600,2167728,0,2.167728,116.0
2601,2168560,0,2.16856,201.0
2602,2169392,0,2.169392,269.0
2603,2170228,0,2.170228,323.0
2604,2171060,0,2.17106,364.0
2605,2171892,0,2.171892,397.0
2606,2172728,0,2.172728,421.0
2607,2173560,0,2.17356,440.0
2608,2174396,0,2.174396,2.0
2609,2175228,0,2.175228,189.0
2610,2176060,0,2.17606,727.0
2611,2176896,0,2.176896,986.0
2612,2177728,0,2.177728,986.0
2613,2178560,0,2.17856,986.0
2614,2179396,0,2.179396,986.0
2615,2180228,0,2.180228,947.0
2616,2181060,0,2.18106,809.0
2617,2181896,0,2.181896,688.0
2618,2182728,0,2.182728,284.0
2619,2183560,0,2.18356,38.0
2620,2184396,0,2.184396,115.0
2621,2185228,0,2.185228,199.0
2622,2186060,0,2.18606,268.0
2623,2186896,0,2.186896,322.0
2624,2187728,0,2.187728,363.0
2625,2188560,0,2.18856,395.0
2626,2189396,0,2.189396,420.0
2627,2190228,0,2.190228,440.0
2628,2191060,0,2.19106,2.0
2629,2191896,0,2.191896,186.0
2630,2192728,0,2.192728,723.0
2631,2193560,0,2.19356,985.0
2632,2194396,0,2.194396,986.0
2633,2195228,0,2.195228,986.0
2634,2196060,0,2.19606,986.0
2635,2196896,0,2.196896,953.0
2636,2197728,0,2.197728,813.0
2637,2198560,0,2.19856,690.0
2638,2199396,0,2.199396,286.0
2639,2200228,0,2.200228,36.0
2640,2201064,0,2.201064,113.0
2641,2201896,0,2.201896,198.0
2642,2202728,0,2.202728,267.0
2643,2203564,0,2.203564,320.0
2644,2204396,0,2.204396,363.0
2645,2205228,0,2.205228,395.0
2646,2206064,0,2.206064,420.0
2647,2206896,0,2.206896,440.0
2648,2207728,0,2.207728,2.0
2649,2208564,0,2.208564,184.0
2650,2209396,0,2.209396,723.0
2651,2210228,0,2.210228,986.0
2652,2211064,0,2.211064,986.0
2653,2211896,0,2.211896,986.0
2654,2212728,0,2.212728,986.0
2655,2213564,0,2.213564,956.0
2656,2214396,0,2.214396,816.0
2657,2215228,0,2.215228,691.0
2658,2216064,0,2.216064,295.0
2659,2216896,0,2.216896,33.0
2660,2217728,0,2.217728,110.0
2661,2218564,0,2.218564,196.0
2662,2219396,0,2.219396,265.0
2663,2220228,0,2.220228,319.0
2664,2221064,0,2.221064,362.0
2665,2221896,0,2.221896,394.0
2666,2222728,0,2.222728,420.0
2667,2223564,0,2.223564,439.0
2668,2224396,0,2.224396,2.0
2669,2225232,0,2.225232,181.0
2670,2226064,0,2.226064,723.0
2671,2226896,0,2.226896,986.0
2672,2227732,0,2.227732,986.0
2673,2228564,0,2.228564,986.0
2674,2229396,0,2.229396,986.0
2675,2230232,0,2.230232,958.0
2676,2231064,0,2.231064,819.0
2677,2231896,0,2.231896,692.0
2678,2232732,0,2.232732,298.0
2679,2233564,0,2.233564,32.0
2680,2234396,0,2.234396,108.0
2681,2235232,0,2.235232,194.0
2682,2236064,0,2.236064,264.0
2683,2236896,0,2.236896,318.0
2684,2237732,0,2.237732,361.0
2685,2238564,0,2.238564,394.0
2686,2239396,0,2.239396,420.0
2687,2240232,0,2.240232,440.0
2688,2241064,0,2.241064,2.0
2689,2241896,0,2.241896,175.0
2690,2242732,0,2.242732,717.0
2691,2243564,0,2.243564,986.0
2692,2244396,0,2.244396,986.0
2693,2245232,0,2.245232,986.0
2694,2246064,0,2.246064,986.0
2695,2246896,0,2.246896,958.0
2696,2247732,0,2.247732,819.0
2697,2248564,0,2.248564,695.0
2698,2249396,0,2.249396,308.0
2699,2250232,0,2.250232,32.0
2700,2251064,0,2.251064,108.0
2701,2251896,0,2.251896,194.0
2702,2252732,0,2.252732,264.0
2703,2253564,0,2.253564,319.0
2704,2254400,0,2.2544,360.0
2705,2255232,0,2.255232,393.0
2706,2256064,0,2.256064,419.0
2707,2256904,0,2.256904,439.0
2708,2257732,0,2.257732,2.0
2709,2258564,0,2.258564,172.0
2710,2259400,0,2.2594,721.0
2711,2260232,0,2.260232,986.0
2712,2261064,0,2.261064,985.0
2713,2261900,0,2.2619,986.0
2714,2262732,0,2.262732,986.0
2715,2263564,0,2.263564,962.0
2716,2264400,0,2.2644,821.0
2717,2265232,0,2.265232,693.0
2718,2266064,0,2.266064,318.0
2719,2266900,0,2.2669,29.0
2720,2267732,0,2.267732,105.0
2721,2268564,0,2.268564,192.0
2722,2269400,0,2.2694,262.0
2723,2270232,0,2.270232,317.0
2724,2271064,0,2.271064,359.0
2725,2271900,0,2.2719,392.0
2726,2272732,0,2.272732,419.0
2727,2273564,0,2.273564,438.0
2728,2274400,0,2.2744,2.0
2729,2275232,0,2.275232,171.0
2730,2276064,0,2.276064,719.0
2731,2276900,0,2.2769,986.0
2732,2277732,0,2.277732,986.0
2733,2278568,0,2.278568,986.0
2734,2279400,0,2.2794,986.0
2735,2280232,0,2.280232,964.0
2736,2281068,0,2.281068,825.0
2737,2281900,0,2.2819,698.0
2738,2282732,0,2.282732,328.0
2739,2283568,0,2.283568,28.0
2740,2284400,0,2.2844,102.0
2741,2285232,0,2.285232,189.0
2742,2286068,0,2.286068,260.0
2743,2286900,0,2.2869,315.0
2744,2287732,0,2.287732,358.0
2745,2288568,0,2.288568,391.0
2746,2289400,0,2.2894,418.0
2747,2290232,0,2.290232,438.0
2748,2291068,0,2.291068,2.0
2749,2291900,0,2.2919,165.0
2750,2292732,0,2.292732,714.0
2751,2293568,0,2.293568,986.0
2752,2294400,0,2.2944,986.0
2753,2295232,0,2.295232,986.0
2754,2296068,0,2.296068,986.0
2755,2296900,0,2.2969,965.0
2756,2297732,0,2.297732,829.0
2757,2298568,0,2.298568,699.0
2758,2299400,0,2.2994,340.0
2759,2300232,0,2.300232,26.0
2760,2301068,0,2.301068,101.0
2761,2301900,0,2.3019,189.0
2762,2302732,0,2.302732,259.0
2763,2303568,0,2.303568,315.0
2764,2304400,0,2.3044,358.0
2765,2305232,0,2.305232,391.0
2766,2306068,0,2.306068,417.0
2767,2306900,0,2.3069,437.0
2768,2307736,0,2.307736,2.0
2769,2308568,0,2.308568,161.0
2770,2309400,0,2.3094,703.0
2771,2310236,0,2.310236,986.0
2772,2311068,0,2.311068,986.0
2773,2311900,0,2.3119,986.0
2774,2312736,0,2.312736,986.0
2775,2313568,0,2.313568,966.0
2776,2314400,0,2.3144,829.0
2777,2315236,0,2.315236,701.0
2778,2316068,0,2.316068,351.0
2779,2316900,0,2.3169,26.0
2780,2317736,0,2.317736,99.0
2781,2318568,0,2.318568,187.0
2782,2319400,0,2.3194,258.0
2783,2320236,0,2.320236,314.0
2784,2321068,0,2.321068,357.0
2785,2321900,0,2.3219,391.0
2786,2322736,0,2.322736,417.0
2787,2323568,0,2.323568,437.0
2788,2324400,0,2.3244,2.0
2789,2325236,0,2.325236,158.0
2790,2326068,0,2.326068,699.0
2791,2326900,0,2.3269,986.0
2792,2327736,0,2.327736,986.0
2793,2328568,0,2.328568,986.0
2794,2329400,0,2.3294,986.0
2795,2330236,0,2.330236,966.0
2796,2331068,0,2.331068,830.0
2797,2331904,0,2.331904,699.0
2798,2332736,0,2.332736,356.0
2799,2333568,0,2.333568,27.0
2800,2334404,0,2.334404,99.0
2801,2335236,0,2.335236,187.0
2802,2336068,0,2.336068,258.0
2803,2336904,0,2.336904,313.0
2804,2337736,0,2.337736,357.0
2805,2338568,0,2.338568,391.0
2806,2339404,0,2.339404,416.0
2807,2340236,0,2.340236,438.0
2808,2341068,0,2.341068,2.0
2809,2341904,0,2.341904,150.0
2810,2342736,0,2.342736,691.0
2811,2343568,0,2.343568,986.0
2812,2344404,0,2.344404,986.0
2813,2345236,0,2.345236,986.0
2814,2346068,0,2.346068,986.0
2815,2346904,0,2.346904,963.0
2816,2347736,0,2.347736,828.0
2817,2348568,0,2.348568,698.0
2818,2349404,0,2.349404,366.0
2819,2350236,0,2.350236,28.0
2820,2351068,0,2.351068,100.0
2821,2351904,0,2.351904,187.0
2822,2352736,0,2.352736,258.0
2823,2353568,0,2.353568,314.0
2824,2354404,0,2.354404,357.0
2825,2355236,0,2.355236,391.0
2826,2356068,0,2.356068,417.0
2827,2356904,0,2.356904,437.0
2828,2357736,0,2.357736,1.0
2829,2358572,0,2.358572,146.0
2830,2359404,0,2.359404,690.0
2831,2360236,0,2.360236,986.0
2832,2361072,0,2.361072,985.0
2833,2361904,0,2.361904,985.0
2834,2362736,0,2.362736,986.0
2835,2363572,0,2.363572,967.0
2836,2364404,0,2.364404,831.0
2837,2365236,0,2.365236,704.0
2838,2366072,0,2.366072,374.0
2839,2366904,0,2.366904,27.0
2840,2367736,0,2.367736,98.0
2841,2368572,0,2.368572,187.0
2842,2369404,0,2.369404,258.0
2843,2370236,0,2.370236,313.0
2844,2371072,0,2.371072,357.0
2845,2371904,0,2.371904,390.0
2846,2372736,0,2.372736,416.0
2847,2373572,0,2.373572,437.0
2848,2374404,0,2.374404,2.0
2849,2375236,0,2.375236,142.0
2850,2376072,0,2.376072,686.0
2851,2376904,0,2.376904,986.0
2852,2377736,0,2.377736,986.0
2853,2378572,0,2.378572,986.0
2854,2379404,0,2.379404,986.0
2855,2380236,0,2.380236,969.0
2856,2381072,0,2.381072,835.0
2857,2381904,0,2.381904,704.0
2858,2382736,0,2.382736,382.0
2859,2383572,0,2.383572,25.0
2860,2384404,0,2.384404,97.0
2861,2385240,0,2.38524,185.0
2862,2386072,0,2.386072,256.0
2863,2386904,0,2.386904,313.0
2864,2387740,0,2.38774,356.0
2865,2388572,0,2.388572,390.0
2866,2389404,0,2.389404,416.0
2867,2390240,0,2.39024,436.0
2868,2391072,0,2.391072,2.0
2869,2391904,0,2.391904,139.0
2870,2392740,0,2.39274,681.0
2871,2393572,0,2.393572,986.0
2872,2394404,0,2.394404,985.0
2873,2395240,0,2.39524,985.0
2874,2396072,0,2.396072,986.0
2875,2396904,0,2.396904,969.0
2876,2397740,0,2.39774,834.0
2877,2398572,0,2.398572,705.0
2878,2399404,0,2.399404,385.0
2879,2400240,0,2.40024,25.0
2880,2401072,0,2.401072,96.0
2881,2401904,0,2.401904,184.0
2882,2402740,0,2.40274,256.0
2883,2403572,0,2.403572,313.0
2884,2404404,0,2.404404,355.0
2885,2405240,0,2.40524,390.0
2886,2406072,0,2.406072,416.0
2887,2406904,0,2.406904,436.0
2888,2407740,0,2.40774,2.0
2889,2408572,0,2.408572,123.0
2890,2409404,0,2.409404,664.0
2891,2410240,0,2.41024,986.0
2892,2411072,0,2.411072,985.0
2893,2411904,0,2.411904,986.0
2894,2412740,0,2.41274,986.0
2895,2413576,0,2.413576,971.0
2896,2414408,0,2.414408,840.0
2897,2415240,0,2.41524,712.0
2898,2416072,0,2.416072,409.0
2899,2416908,0,2.416908,27.0
2900,2417740,0,2.41774,97.0
2901,2418572,0,2.418572,184.0
2902,2419408,0,2.419408,256.0
2903,2420240,0,2.42024,312.0
2904,2421072,0,2.421072,356.0
2905,2421908,0,2.421908,390.0
2906,2422740,0,2.42274,416.0
2907,2423572,0,2.423572,436.0
2908,2424408,0,2.424408,2.0
2909,2425240,0,2.42524,125.0
2910,2426072,0,2.426072,670.0
2911,2426908,0,2.426908,986.0
2912,2427740,0,2.42774,986.0
2913,2428572,0,2.428572,985.0
2914,2429408,0,2.429408,986.0
2915,2430240,0,2.43024,969.0
2916,2431072,0,2.431072,837.0
2917,2431908,0,2.431908,707.0
2918,2432740,0,2.43274,417.0
2919,2433572,0,2.433572,28.0
2920,2434408,0,2.434408,96.0
2921,2435240,0,2.43524,184.0
2922,2436072,0,2.436072,256.0
2923,2436908,0,2.436908,312.0
2924,2437740,0,2.43774,355.0
2925,2438572,0,2.438572,390.0
2926,2439408,0,2.439408,416.0
2927,2440240,0,2.44024,436.0
2928,2441076,0,2.441076,2.0
2929,2441908,0,2.441908,124.0
2930,2442740,0,2.44274,670.0
2931,2443576,0,2.443576,985.0
2932,2444408,0,2.444408,986.0
2933,2445240,0,2.44524,986.0
2934,2446076,0,2.446076,986.0
2935,2446908,0,2.446908,972.0
2936,2447740,0,2.44774,842.0
2937,2448576,0,2.448576,710.0
2938,2449408,0,2.449408,430.0
2939,2450240,0,2.45024,26.0
2940,2451076,0,2.451076,93.0
2941,2451908,0,2.451908,181.0
2942,2452740,0,2.45274,254.0
2943,2453576,0,2.453576,310.0
2944,2454408,0,2.454408,355.0
2945,2455240,0,2.45524,389.0
2946,2456076,0,2.456076,415.0
2947,2456908,0,2.456908,436.0
2948,2457740,0,2.45774,2.0
2949,2458576,0,2.458576,117.0
2950,2459408,0,2.459408,667.0
2951,2460240,0,2.46024,986.0
2952,2461076,0,2.461076,986.0
2953,2461908,0,2.461908,985.0
2954,2462740,0,2.46274,986.0
2955,2463576,0,2.463576,975.0
2956,2464408,0,2.464408,844.0
2957,2465244,0,2.465244,712.0
2958,2466076,0,2.466076,442.0
2959,2466908,0,2.466908,24.0
2960,2467744,0,2.467744,91.0
2961,2468576,0,2.468576,180.0
2962,2469408,0,2.469408,252.0
2963,2470244,0,2.470244,310.0
2964,2471076,0,2.471076,354.0
2965,2471908,0,2.471908,388.0
2966,2472744,0,2.472744,415.0
2967,2473576,0,2.473576,436.0
2968,2474408,0,2.474408,2.0
2969,2475244,0,2.475244,109.0
2970,2476076,0,2.476076,662.0
2971,2476908,0,2.476908,986.0
2972,2477744,0,2.477744,985.0
2973,2478576,0,2.478576,986.0
2974,2479408,0,2.479408,986.0
2975,2480244,0,2.480244,974.0
2976,2481076,0,2.481076,845.0
2977,2481908,0,2.481908,713.0
2978,2482744,0,2.482744,452.0
2979,2483576,0,2.483576,26.0
2980,2484408,0,2.484408,92.0
2981,2485244,0,2.485244,180.0
2982,2486076,0,2.486076,253.0
2983,2486908,0,2.486908,310.0
2984,2487744,0,2.487744,354.0
2985,2488576,0,2.488576,388.0
2986,2489408,0,2.489408,415.0
2987,2490244,0,2.490244,435.0
2988,2491076,0,2.491076,2.0
2989,2491908,0,2.491908,104.0
2990,2492744,0,2.492744,658.0
2991,2493576,0,2.493576,986.0
2992,2494412,0,2.494412,986.0
2993,2495244,0,2.495244,986.0
2994,2496076,0,2.496076,986.0
2995,2496912,0,2.496912,975.0
2996,2497744,0,2.497744,845.0
2997,2498576,0,2.498576,714.0
2998,2499412,0,2.499412,465.0
2999,2500244,0,2.500244,25.0
3000,2501076,0,2.501076,90.0
3001,2501912,0,2.501912,179.0
3002,2502744,0,2.502744,252.0
3003,2503576,0,2.503576,309.0
3004,2504412,0,2.504412,354.0
3005,2505244,0,2.505244,388.0
3006,2506076,0,2.506076,415.0
3007,2506912,0,2.506912,436.0
3008,2507744,0,2.507744,2.0
3009,2508576,0,2.508576,102.0
3010,2509412,0,2.509412,654.0
3011,2510244,0,2.510244,986.0
3012,2511076,0,2.511076,986.0
3013,2511912,0,2.511912,986.0
3014,2512744,0,2.512744,986.0
3015,2513576,0,2.513576,974.0
3016,2514412,0,2.514412,846.0
3017,2515244,0,2.515244,713.0
3018,2516076,0,2.516076,475.0
3019,2516912,0,2.516912,26.0
3020,2517744,0,2.517744,90.0
3021,2518580,0,2.51858,179.0
3022,2519412,0,2.519412,251.0
3023,2520244,0,2.520244,308.0
3024,2521080,0,2.52108,353.0
3025,2521912,0,2.521912,388.0
3026,2522744,0,2.522744,415.0
3027,2523580,0,2.52358,436.0
3028,2524412,0,2.524412,2.0
3029,2525244,0,2.525244,95.0
3030,2526080,0,2.52608,645.0
3031,2526912,0,2.526912,986.0
3032,2527744,0,2.527744,986.0
3033,2528580,0,2.52858,986.0
3034,2529412,0,2.529412,986.0
3035,2530244,0,2.530244,974.0
3036,2531080,0,2.53108,843.0
3037,2531912,0,2.531912,711.0
3038,2532744,0,2.532744,484.0
3039,2533580,0,2.53358,28.0
3040,2534412,0,2.534412,92.0
3041,2535244,0,2.535244,180.0
3042,2536080,0,2.53608,252.0
3043,2536912,0,2.536912,309.0
3044,2537744,0,2.537744,353.0
3045,2538580,0,2.53858,388.0
3046,2539412,0,2.539412,415.0
3047,2540244,0,2.540244,436.0
3048,2541080,0,2.54108,3.0
3049,2541912,0,2.541912,90.0
3050,2542744,0,2.542744,644.0
3051,2543580,0,2.54358,986.0
3052,2544412,0,2.544412,986.0
3053,2545248,0,2.545248,986.0
3054,2546080,0,2.54608,986.0
3055,2546912,0,2.546912,977.0
3056,2547748,0,2.547748,849.0
3057,2548580,0,2.54858,716.0
3058,2549412,0,2.549412,499.0
3059,2550248,0,2.550248,27.0
3060,2551080,0,2.55108,89.0
3061,2551912,0,2.551912,178.0
3062,2552748,0,2.552748,251.0
3063,2553580,0,2.55358,308.0
3064,2554412,0,2.554412,352.0
3065,2555248,0,2.555248,388.0
3066,2556080,0,2.55608,414.0
3067,2556912,0,2.556912,435.0
3068,2557748,0,2.557748,2.0
3069,2558580,0,2.55858,80.0
3070,2559412,0,2.559412,636.0
3071,2560248,0,2.560248,986.0
3072,2561080,0,2.56108,986.0
3073,2561912,0,2.561912,986.0
3074,2562748,0,2.562748,986.0
3075,2563580,0,2.56358,975.0
3076,2564412,0,2.564412,848.0
3077,2565248,0,2.565248,714.0
3078,2566080,0,2.56608,518.0
3079,2566912,0,2.566912,29.0
3080,2567748,0,2.567748,89.0
3081,2568580,0,2.56858,179.0
3082,2569412,0,2.569412,252.0
3083,2570248,0,2.570248,309.0
3084,2571080,0,2.57108,353.0
3085,2571916,0,2.571916,387.0
3086,2572748,0,2.572748,415.0
3087,2573580,0,2.57358,435.0
3088,2574416,0,2.574416,2.0
3089,2575248,0,2.575248,82.0
3090,2576080,0,2.57608,634.0
3091,2576916,0,2.576916,986.0
3092,2577748,0,2.577748,986.0
3093,2578580,0,2.57858,986.0
3094,2579416,0,2.579416,986.0
3095,2580248,0,2.580248,978.0
3096,2581080,0,2.58108,853.0
3097,2581916,0,2.581916,719.0
3098,2582748,0,2.582748,535.0
3099,2583580,0,2.58358,27.0
3100,2584416,0,2.584416,87.0
3101,2585248,0,2.585248,176.0
3102,2586080,0,2.58608,250.0
3103,2586916,0,2.586916,307.0
3104,2587748,0,2.587748,352.0
3105,2588580,0,2.58858,386.0
3106,2589416,0,2.589416,413.0
3107,2590248,0,2.590248,434.0
3108,2591080,0,2.59108,2.0
3109,2591916,0,2.591916,84.0
3110,2592748,0,2.592748,634.0
3111,2593580,0,2.59358,986.0
3112,2594416,0,2.594416,986.0
3113,2595248,0,2.595248,986.0
3114,2596080,0,2.59608,986.0
3115,2596916,0,2.596916,980.0
3116,2597748,0,2.597748,858.0
3117,2598580,0,2.59858,725.0
3118,2599416,0,2.599416,550.0
3119,2600248,0,2.600248,24.0
3120,2601084,0,2.601084,83.0
3121,2601916,0,2.601916,173.0
3122,2602748,0,2.602748,247.0
3123,2603584,0,2.603584,305.0
3124,2604416,0,2.604416,350.0
3125,2605248,0,2.605248,385.0
3126,2606088,0,2.606088,412.0
3127,2606916,0,2.606916,434.0
3128,2607748,0,2.607748,2.0
3129,2608584,0,2.608584,77.0
3130,2609416,0,2.609416,627.0
3131,2610248,0,2.610248,986.0
3132,2611084,0,2.611084,985.0
3133,2611916,0,2.611916,986.0
3134,2612748,0,2.612748,986.0
3135,2613584,0,2.613584,967.0
3136,2614416,0,2.614416,831.0
3137,2615248,0,2.615248,725.0
3138,2616084,0,2.616084,574.0
3139,2616916,0,2.616916,31.0
3140,2617748,0,2.617748,88.0
3141,2618584,0,2.618584,176.0
3142,2619416,0,2.619416,250.0
3143,2620248,0,2.620248,308.0
3144,2621084,0,2.621084,352.0
3145,2621916,0,2.621916,387.0
3146,2622748,0,2.622748,414.0
3147,2623584,0,2.623584,435.0
3148,2624416,0,2.624416,2.0
3149,2625252,0,2.625252,72.0
3150,2626084,0,2.626084,625.0
3151,2626916,0,2.626916,985.0
3152,2627752,0,2.627752,986.0
3153,2628584,0,2.628584,985.0
3154,2629416,0,2.629416,986.0
3155,2630252,0,2.630252,982.0
3156,2631084,0,2.631084,863.0
3157,2631916,0,2.631916,731.0
3158,2632752,0,2.632752,582.0
3159,2633584,0,2.633584,23.0
3160,2634416,0,2.634416,79.0
3161,2635252,0,2.635252,169.0
3162,2636084,0,2.636084,245.0
3163,2636916,0,2.636916,304.0
3164,2637752,0,2.637752,349.0
3165,2638584,0,2.638584,385.0
3166,2639416,0,2.639416,412.0
3167,2640252,0,2.640252,433.0
3168,2641084,0,2.641084,2.0
3169,2641916,0,2.641916,68.0
3170,2642752,0,2.642752,620.0
3171,2643584,0,2.643584,986.0
3172,2644416,0,2.644416,986.0
3173,2645252,0,2.645252,986.0
3174,2646084,0,2.646084,986.0
3175,2646916,0,2.646916,983.0
3176,2647752,0,2.647752,865.0
3177,2648584,0,2.648584,733.0
3178,2649416,0,2.649416,595.0
3179,2650252,0,2.650252,22.0
3180,2651084,0,2.651084,79.0
3181,2651916,0,2.651916,168.0
3182,2652752,0,2.652752,244.0
3183,2653584,0,2.653584,303.0
3184,2654420,0,2.65442,348.0
3185,2655252,0,2.655252,384.0
3186,2656084,0,2.656084,412.0
3187,2656920,0,2.65692,432.0
3188,2657752,0,2.657752,1.0
3189,2658584,0,2.658584,66.0
3190,2659420,0,2.65942,619.0
3191,2660252,0,2.660252,986.0
3192,2661084,0,2.661084,985.0
3193,2661920,0,2.66192,986.0
3194,2662752,0,2.662752,986.0
3195,2663584,0,2.663584,983.0
3196,2664420,0,2.66442,865.0
3197,2665252,0,2.665252,732.0
3198,2666084,0,2.666084,615.0
3199,2666920,0,2.66692,22.0
3200,2667752,0,2.667752,76.0
3201,2668584,0,2.668584,168.0
3202,2669420,0,2.66942,243.0
3203,2670252,0,2.670252,302.0
3204,2671084,0,2.671084,347.0
3205,2671920,0,2.67192,384.0
3206,2672752,0,2.672752,411.0
3207,2673584,0,2.673584,433.0
3208,2674420,0,2.67442,1.0
3209,2675252,0,2.675252,62.0
3210,2676084,0,2.676084,616.0
3211,2676920,0,2.67692,985.0
3212,2677752,0,2.677752,986.0
3213,2678588,0,2.678588,986.0
3214,2679420,0,2.67942,986.0
3215,2680252,0,2.680252,984.0
3216,2681088,0,2.681088,869.0
3217,2681920,0,2.68192,734.0
3218,2682752,0,2.682752,628.0
3219,2683588,0,2.683588,21.0
3220,2684420,0,2.68442,74.0
3221,2685252,0,2.685252,166.0
3222,2686088,0,2.686088,241.0
3223,2686920,0,2.68692,301.0
3224,2687752,0,2.687752,347.0
3225,2688588,0,2.688588,383.0
3226,2689420,0,2.68942,411.0
3227,2690252,0,2.690252,432.0
3228,2691088,0,2.691088,2.0
3229,2691920,0,2.69192,59.0
3230,2692752,0,2.692752,615.0
3231,2693588,0,2.693588,986.0
3232,2694420,0,2.69442,986.0
3233,2695252,0,2.695252,986.0
3234,2696088,0,2.696088,986.0
3235,2696920,0,2.69692,984.0
3236,2697752,0,2.697752,873.0
3237,2698588,0,2.698588,738.0
3238,2699420,0,2.69942,649.0
3239,2700252,0,2.700252,19.0
3240,2701088,0,2.701088,71.0
3241,2701920,0,2.70192,163.0
3242,2702752,0,2.702752,240.0
3243,2703588,0,2.703588,299.0
3244,2704420,0,2.70442,346.0
3245,2705256,0,2.705256,381.0
3246,2706088,0,2.706088,410.0
3247,2706920,0,2.70692,431.0
3248,2707756,0,2.707756,2.0
3249,2708588,0,2.708588,54.0
3250,2709420,0,2.70942,610.0
3251,2710256,0,2.710256,986.0
3252,2711088,0,2.711088,986.0
3253,2711920,0,2.71192,986.0
3254,2712756,0,2.712756,986.0
3255,2713588,0,2.713588,985.0
3256,2714420,0,2.71442,872.0
3257,2715256,0,2.715256,722.0
3258,2716088,0,2.716088,617.0
3259,2716920,0,2.71692,25.0
3260,2717756,0,2.717756,77.0
3261,2718588,0,2.718588,167.0
3262,2719420,0,2.71942,243.0
3263,2720256,0,2.720256,302.0
3264,2721088,0,2.721088,348.0
3265,2721920,0,2.72192,384.0
3266,2722756,0,2.722756,411.0
3267,2723588,0,2.723588,432.0
3268,2724420,0,2.72442,2.0
3269,2725256,0,2.725256,50.0
3270,2726088,0,2.726088,608.0
3271,2726920,0,2.72692,986.0
3272,2727756,0,2.727756,985.0
3273,2728588,0,2.728588,986.0
3274,2729420,0,2.72942,986.0
3275,2730256,0,2.730256,985.0
3276,2731088,0,2.731088,873.0
3277,2731924,0,2.731924,735.0
3278,2732756,0,2.732756,632.0
3279,2733588,0,2.733588,23.0
3280,2734424,0,2.734424,72.0
3281,2735256,0,2.735256,163.0
3282,2736088,0,2.736088,240.0
3283,2736924,0,2.736924,299.0
3284,2737756,0,2.737756,346.0
3285,2738588,0,2.738588,382.0
3286,2739424,0,2.739424,410.0
3287,2740256,0,2.740256,432.0
3288,2741088,0,2.741088,2.0
3289,2741924,0,2.741924,45.0
3290,2742756,0,2.742756,593.0
3291,2743588,0,2.743588,986.0
3292,2744424,0,2.744424,986.0
3293,2745256,0,2.745256,985.0
3294,2746088,0,2.746088,986.0
3295,2746924,0,2.746924,985.0
3296,2747756,0,2.747756,878.0
3297,2748588,0,2.748588,739.0
3298,2749424,0,2.749424,630.0
3299,2750256,0,2.750256,22.0
3300,2751088,0,2.751088,69.0
3301,2751924,0,2.751924,161.0
3302,2752756,0,2.752756,238.0
3303,2753588,0,2.753588,298.0
3304,2754424,0,2.754424,345.0
3305,2755256,0,2.755256,381.0
3306,2756088,0,2.756088,409.0
3307,2756924,0,2.756924,431.0
3308,2757756,0,2.757756,1.0
3309,2758592,0,2.758592,42.0
3310,2759424,0,2.759424,590.0
3311,2760256,0,2.760256,986.0
3312,2761092,0,2.761092,986.0
3313,2761924,0,2.761924,986.0
3314,2762760,0,2.76276,986.0
3315,2763592,0,2.763592,985.0
3316,2764424,0,2.764424,876.0
3317,2765256,0,2.765256,741.0
3318,2766092,0,2.766092,631.0
3319,2766924,0,2.766924,22.0
3320,2767756,0,2.767756,70.0
3321,2768592,0,2.768592,161.0
3322,2769424,0,2.769424,238.0
3323,2770256,0,2.770256,298.0
3324,2771092,0,2.771092,345.0
3325,2771924,0,2.771924,381.0
3326,2772756,0,2.772756,409.0
3327,2773592,0,2.773592,430.0
3328,2774424,0,2.774424,2.0
3329,2775256,0,2.775256,37.0
3330,2776092,0,2.776092,585.0
3331,2776924,0,2.776924,986.0
3332,2777756,0,2.777756,985.0
3333,2778592,0,2.778592,986.0
3334,2779424,0,2.779424,986.0
3335,2780256,0,2.780256,986.0
3336,2781092,0,2.781092,881.0
3337,2781924,0,2.781924,745.0
3338,2782756,0,2.782756,635.0
3339,2783592,0,2.783592,22.0
3340,2784424,0,2.784424,68.0
3341,2785260,0,2.78526,160.0
3342,2786092,0,2.786092,236.0
3343,2786924,0,2.786924,296.0
3344,2787760,0,2.78776,344.0
3345,2788592,0,2.788592,381.0
3346,2789424,0,2.789424,409.0
3347,2790260,0,2.79026,431.0
3348,2791092,0,2.791092,2.0
3349,2791924,0,2.791924,35.0
3350,2792760,0,2.79276,582.0
3351,2793592,0,2.793592,986.0
3352,2794424,0,2.794424,986.0
3353,2795260,0,2.79526,986.0
3354,2796092,0,2.796092,986.0
3355,2796924,0,2.796924,986.0
3356,2797760,0,2.79776,882.0
3357,2798592,0,2.798592,744.0
3358,2799424,0,2.799424,632.0
3359,2800260,0,2.80026,23.0
3360,2801092,0,2.801092,67.0
3361,2801924,0,2.801924,159.0
3362,2802760,0,2.80276,235.0
3363,2803592,0,2.803592,296.0
3364,2804424,0,2.804424,343.0
3365,2805260,0,2.80526,380.0
3366,2806092,0,2.806092,409.0
3367,2806924,0,2.806924,431.0
3368,2807760,0,2.80776,2.0
3369,2808592,0,2.808592,30.0
3370,2809424,0,2.809424,572.0
3371,2810260,0,2.81026,986.0
3372,2811092,0,2.811092,985.0
3373,2811924,0,2.811924,986.0
3374,2812760,0,2.81276,986.0
3375,2813592,0,2.813592,986.0
3376,2814428,0,2.814428,883.0
3377,2815260,0,2.81526,747.0
3378,2816092,0,2.816092,641.0
3379,2816928,0,2.816928,23.0
3380,2817760,0,2.81776,64.0
3381,2818592,0,2.818592,156.0
3382,2819428,0,2.819428,234.0
3383,2820260,0,2.82026,295.0
3384,2821092,0,2.821092,342.0
3385,2821928,0,2.821928,379.0
3386,2822760,0,2.82276,408.0
3387,2823592,0,2.823592,430.0
3388,2824428,0,2.824428,2.0
3389,2825260,0,2.82526,29.0
3390,2826092,0,2.826092,573.0
3391,2826928,0,2.826928,986.0
3392,2827760,0,2.82776,986.0
3393,2828592,0,2.828592,986.0
3394,2829428,0,2.829428,986.0
3395,2830260,0,2.83026,986.0
3396,2831092,0,2.831092,892.0
3397,2831928,0,2.831928,751.0
3398,2832760,0,2.83276,643.0
3399,2833592,0,2.833592,21.0
3400,2834428,0,2.834428,60.0
3401,2835260,0,2.83526,153.0
3402,2836092,0,2.836092,232.0
3403,2836928,0,2.836928,293.0
3404,2837760,0,2.83776,341.0
3405,2838592,0,2.838592,379.0
3406,2839428,0,2.839428,407.0
3407,2840260,0,2.84026,429.0
3408,2841096,0,2.841096,3.0
3409,2841928,0,2.841928,24.0
3410,2842760,0,2.84276,564.0
3411,2843596,0,2.843596,986.0
3412,2844428,0,2.844428,986.0
3413,2845260,0,2.84526,985.0
3414,2846096,0,2.846096,986.0
3415,2846928,0,2.846928,986.0
3416,2847760,0,2.84776,892.0
3417,2848596,0,2.848596,750.0
3418,2849428,0,2.849428,643.0
3419,2850260,0,2.85026,22.0
3420,2851096,0,2.851096,60.0
3421,2851928,0,2.851928,153.0
3422,2852760,0,2.85276,231.0
3423,2853596,0,2.853596,293.0
3424,2854428,0,2.854428,341.0
3425,2855260,0,2.85526,378.0
3426,2856096,0,2.856096,407.0
3427,2856928,0,2.856928,430.0
3428,2857760,0,2.85776,2.0
3429,2858596,0,2.858596,23.0
3430,2859428,0,2.859428,560.0
3431,2860260,0,2.86026,986.0
3432,2861096,0,2.861096,986.0
3433,2861928,0,2.861928,985.0
3434,2862760,0,2.86276,986.0
3435,2863596,0,2.863596,986.0
3436,2864428,0,2.864428,893.0
3437,2865264,0,2.865264,753.0
3438,2866096,0,2.866096,646.0
3439,2866928,0,2.866928,23.0
3440,2867764,0,2.867764,59.0
3441,2868596,0,2.868596,151.0
3442,2869428,0,2.869428,230.0
3443,2870264,0,2.870264,291.0
3444,2871096,0,2.871096,339.0
3445,2871928,0,2.871928,378.0
3446,2872764,0,2.872764,407.0
3447,2873596,0,2.873596,429.0
3448,2874428,0,2.874428,2.0
3449,2875264,0,2.875264,20.0
3450,2876096,0,2.876096,555.0
3451,2876928,0,2.876928,986.0
3452,2877764,0,2.877764,986.0
3453,2878596,0,2.878596,986.0
3454,2879428,0,2.879428,986.0
3455,2880264,0,2.880264,986.0
3456,2881096,0,2.881096,899.0
3457,2881928,0,2.881928,761.0
3458,2882764,0,2.882764,652.0
3459,2883596,0,2.883596,22.0
3460,2884428,0,2.884428,55.0
3461,2885264,0,2.885264,149.0
3462,2886096,0,2.886096,228.0
3463,2886928,0,2.886928,290.0
3464,2887764,0,2.887764,338.0
3465,2888596,0,2.888596,376.0
3466,2889428,0,2.889428,406.0
3467,2890264,0,2.890264,428.0
3468,2891096,0,2.891096,2.0
3469,2891928,0,2.891928,16.0
3470,2892764,0,2.892764,548.0
3471,2893596,0,2.893596,986.0
3472,2894432,0,2.894432,986.0
3473,2895264,0,2.895264,986.0
3474,2896096,0,2.896096,986.0
3475,2896932,0,2.896932,986.0
3476,2897764,0,2.897764,894.0
3477,2898596,0,2.898596,752.0
3478,2899432,0,2.899432,644.0
3479,2900264,0,2.900264,26.0
3480,2901096,0,2.901096,58.0
3481,2901932,0,2.901932,152.0
3482,2902764,0,2.902764,230.0
3483,2903596,0,2.903596,292.0
3484,2904432,0,2.904432,340.0
3485,2905264,0,2.905264,377.0
3486,2906096,0,2.906096,407.0
3487,2906932,0,2.906932,429.0
3488,2907764,0,2.907764,3.0
3489,2908596,0,2.908596,15.0
3490,2909432,0,2.909432,547.0
3491,2910264,0,2.910264,985.0
3492,2911096,0,2.911096,986.0
3493,2911932,0,2.911932,986.0
3494,2912764,0,2.912764,986.0
3495,2913596,0,2.913596,986.0
3496,2914432,0,2.914432,899.0
3497,2915264,0,2.915264,755.0
3498,2916096,0,2.916096,646.0
3499,2916932,0,2.916932,26.0
3500,2917764,0,2.917764,55.0
3501,2918596,0,2.918596,149.0
3502,2919432,0,2.919432,227.0
3503,2920264,0,2.920264,290.0
3504,2921100,0,2.9211,339.0
3505,2921932,0,2.921932,376.0
3506,2922764,0,2.922764,405.0
3507,2923600,0,2.9236,428.0
3508,2924432,0,2.924432,3.0
3509,2925264,0,2.925264,12.0
3510,2926100,0,2.9261,538.0
3511,2926932,0,2.926932,986.0
3512,2927764,0,2.927764,986.0
3513,2928600,0,2.9286,985.0
3514,2929432,0,2.929432,986.0
3515,2930264,0,2.930264,986.0
3516,2931100,0,2.9311,898.0
3517,2931932,0,2.931932,757.0
3518,2932764,0,2.932764,644.0
3519,2933600,0,2.9336,29.0
3520,2934432,0,2.934432,58.0
3521,2935264,0,2.935264,150.0
3522,2936100,0,2.9361,229.0
3523,2936932,0,2.936932,291.0
3524,2937764,0,2.937764,339.0
3525,2938600,0,2.9386,377.0
3526,2939432,0,2.939432,406.0
3527,2940264,0,2.940264,429.0
3528,2941100,0,2.9411,4.0
3529,2941932,0,2.941932,11.0
3530,2942764,0,2.942764,541.0
3531,2943600,0,2.9436,986.0
3532,2944432,0,2.944432,985.0
3533,2945268,0,2.945268,985.0
3534,2946100,0,2.9461,986.0
3535,2946932,0,2.946932,986.0
3536,2947768,0,2.947768,904.0
3537,2948600,0,2.9486,765.0
3538,2949432,0,2.949432,650.0
3539,2950268,0,2.950268,27.0
3540,2951100,0,2.9511,53.0
3541,2951932,0,2.951932,146.0
3542,2952768,0,2.952768,225.0
3543,2953600,0,2.9536,288.0
3544,2954432,0,2.954432,337.0
3545,2955272,0,2.955272,375.0
3546,2956100,0,2.9561,405.0
3547,2956932,0,2.956932,428.0
3548,2957768,0,2.957768,10.0
3549,2958600,0,2.9586,8.0
3550,2959432,0,2.959432,531.0
3551,2960268,0,2.960268,986.0
3552,2961100,0,2.9611,986.0
3553,2961932,0,2.961932,986.0
3554,2962768,0,2.962768,986.0
3555,2963600,0,2.9636,986.0
3556,2964432,0,2.964432,913.0
3557,2965268,0,2.965268,770.0
3558,2966100,0,2.9661,654.0
3559,2966932,0,2.966932,26.0
3560,2967768,0,2.967768,50.0
3561,2968600,0,2.9686,143.0
3562,2969432,0,2.969432,224.0
3563,2970268,0,2.970268,287.0
3564,2971100,0,2.9711,336.0
3565,2971932,0,2.971932,374.0
3566,2972768,0,2.972768,404.0
3567,2973600,0,2.9736,428.0
3568,2974436,0,2.974436,52.0
3569,2975268,0,2.975268,6.0
3570,2976100,0,2.9761,526.0
3571,2976936,0,2.976936,986.0
3572,2977768,0,2.977768,986.0
3573,2978600,0,2.9786,986.0
3574,2979436,0,2.979436,986.0
3575,2980268,0,2.980268,986.0
3576,2981100,0,2.9811,905.0
3577,2981936,0,2.981936,763.0
3578,2982768,0,2.982768,650.0
3579,2983600,0,2.9836,30.0
3580,2984436,0,2.984436,52.0
3581,2985268,0,2.985268,146.0
3582,2986100,0,2.9861,226.0
3583,2986936,0,2.986936,288.0
3584,2987768,0,2.987768,337.0
3585,2988600,0,2.9886,375.0
3586,2989436,0,2.989436,405.0
3587,2990268,0,2.990268,428.0
3588,2991100,0,2.9911,82.0
3589,2991936,0,2.991936,5.0
3590,2992768,0,2.992768,523.0
3591,2993600,0,2.9936,985.0
3592,2994436,0,2.994436,985.0
3593,2995268,0,2.995268,986.0
3594,2996100,0,2.9961,986.0
3595,2996936,0,2.996936,986.0
3596,2997768,0,2.997768,906.0
3597,2998600,0,2.9986,764.0
3598,2999436,0,2.999436,650.0
3599,3000268,0,3.000268,32.0
3600,3001104,0,3.001104,52.0
3601,3001936,0,3.001936,144.0
3602,3002768,0,3.002768,224.0
3603,3003604,0,3.003604,287.0
3604,3004436,0,3.004436,336.0
3605,3005268,0,3.005268,375.0
3606,3006104,0,3.006104,405.0
3607,3006936,0,3.006936,428.0
3608,3007768,0,3.007768,133.0
3609,3008604,0,3.008604,4.0
3610,3009436,0,3.009436,511.0
3611,3010268,0,3.010268,980.0
3612,3011104,0,3.011104,985.0
3613,3011936,0,3.011936,986.0
3614,3012768,0,3.012768,986.0
3615,3013604,0,3.013604,986.0
3616,3014436,0,3.014436,906.0
3617,3015268,0,3.015268,768.0
3618,3016104,0,3.016104,655.0
3619,3016936,0,3.016936,35.0
3620,3017768,0,3.017768,52.0
3621,3018604,0,3.018604,144.0
3622,3019436,0,3.019436,224.0
3623,3020268,0,3.020268,287.0
3624,3021104,0,3.021104,336.0
3625,3021936,0,3.021936,375.0
3626,3022768,0,3.022768,404.0
3627,3023604,0,3.023604,427.0
3628,3024436,0,3.024436,173.0
3629,3025268,0,3.025268,3.0
3630,3026104,0,3.026104,509.0
3631,3026936,0,3.026936,980.0
3632,3027772,0,3.027772,986.0
3633,3028604,0,3.028604,986.0
3634,3029436,0,3.029436,986.0
3635,3030272,0,3.030272,986.0
3636,3031104,0,3.031104,908.0
3637,3031936,0,3.031936,769.0
3638,3032772,0,3.032772,650.0
3639,3033604,0,3.033604,36.0
3640,3034436,0,3.034436,52.0
3641,3035272,0,3.035272,144.0
3642,3036104,0,3.036104,225.0
3643,3036936,0,3.036936,287.0
3644,3037772,0,3.037772,337.0
3645,3038604,0,3.038604,374.0
3646,3039436,0,3.039436,404.0
3647,3040272,0,3.040272,427.0
3648,3041104,0,3.041104,199.0
3649,3041936,0,3.041936,2.0
3650,3042772,0,3.042772,508.0
3651,3043604,0,3.043604,979.0
3652,3044436,0,3.044436,986.0
3653,3045272,0,3.045272,985.0
3654,3046104,0,3.046104,986.0
3655,3046936,0,3.046936,985.0
3656,3047772,0,3.047772,907.0
3657,3048604,0,3.048604,767.0
3658,3049436,0,3.049436,655.0
3659,3050272,0,3.050272,37.0
3660,3051104,0,3.051104,50.0
3661,3051936,0,3.051936,142.0
3662,3052772,0,3.052772,222.0
3663,3053604,0,3.053604,286.0
3664,3054440,0,3.05444,335.0
3665,3055272,0,3.055272,374.0
3666,3056104,0,3.056104,404.0
3667,3056940,0,3.05694,427.0
3668,3057772,0,3.057772,255.0
3669,3058604,0,3.058604,3.0
3670,3059440,0,3.05944,500.0
3671,3060272,0,3.060272,975.0
3672,3061104,0,3.061104,986.0
3673,3061940,0,3.06194,986.0
3674,3062772,0,3.062772,986.0
3675,3063604,0,3.063604,986.0
3676,3064440,0,3.06444,910.0
3677,3065272,0,3.065272,772.0
3678,3066104,0,3.066104,656.0
3679,3066940,0,3.06694,39.0
3680,3067772,0,3.067772,50.0
3681,3068604,0,3.068604,142.0
3682,3069440,0,3.06944,223.0
3683,3070272,0,3.070272,286.0
3684,3071104,0,3.071104,335.0
3685,3071940,0,3.07194,374.0
3686,3072772,0,3.072772,403.0
3687,3073604,0,3.073604,427.0
3688,3074440,0,3.07444,281.0
3689,3075272,0,3.075272,2.0
3690,3076104,0,3.076104,496.0
3691,3076940,0,3.07694,970.0
3692,3077772,0,3.077772,986.0
3693,3078608,0,3.078608,986.0
3694,3079440,0,3.07944,986.0
3695,3080272,0,3.080272,986.0
3696,3081108,0,3.081108,909.0
3697,3081940,0,3.08194,768.0
3698,3082772,0,3.082772,657.0
3699,3083608,0,3.083608,41.0
3700,3084440,0,3.08444,49.0
3701,3085272,0,3.085272,141.0
3702,3086108,0,3.086108,222.0
3703,3086940,0,3.08694,286.0
3704,3087772,0,3.087772,336.0
3705,3088608,0,3.088608,374.0
3706,3089440,0,3.08944,404.0
3707,3090272,0,3.090272,427.0
3708,3091108,0,3.091108,343.0
3709,3091940,0,3.09194,2.0
3710,3092772,0,3.092772,489.0
3711,3093608,0,3.093608,965.0
3712,3094440,0,3.09444,986.0
3713,3095272,0,3.095272,986.0
3714,3096108,0,3.096108,985.0
3715,3096940,0,3.09694,986.0
3716,3097772,0,3.097772,914.0
3717,3098608,0,3.098608,775.0
3718,3099440,0,3.09944,661.0
3719,3100272,0,3.100272,42.0
3720,3101108,0,3.101108,46.0
3721,3101940,0,3.10194,139.0
3722,3102772,0,3.102772,221.0
3723,3103608,0,3.103608,284.0
3724,3104440,0,3.10444,334.0
3725,3105276,0,3.105276,373.0
3726,3106108,0,3.106108,402.0
3727,3106940,0,3.10694,426.0
3728,3107776,0,3.107776,405.0
3729,3108608,0,3.108608,2.0
3730,3109440,0,3.10944,482.0
3731,3110276,0,3.110276,961.0
3732,3111108,0,3.111108,986.0
3733,3111944,0,3.111944,986.0
3734,3112776,0,3.112776,986.0
3735,3113608,0,3.113608,985.0
3736,3114440,0,3.11444,913.0
3737,3115276,0,3.115276,771.0
3738,3116108,0,3.116108,658.0
3739,3116940,0,3.11694,45.0
3740,3117776,0,3.117776,47.0
3741,3118608,0,3.118608,141.0
3742,3119440,0,3.11944,221.0
3743,3120276,0,3.120276,285.0
3744,3121108,0,3.121108,335.0
3745,3121940,0,3.12194,373.0
3746,3122776,0,3.122776,403.0
3747,3123608,0,3.123608,426.0
3748,3124440,0,3.12444,446.0
3749,3125276,0,3.125276,1.0
3750,3126108,0,3.126108,456.0
3751,3126940,0,3.12694,941.0
3752,3127776,0,3.127776,986.0
3753,3128608,0,3.128608,986.0
3754,3129440,0,3.12944,985.0
3755,3130276,0,3.130276,986.0
3756,3131108,0,3.131108,916.0
3757,3131944,0,3.131944,773.0
3758,3132776,0,3.132776,660.0
3759,3133608,0,3.133608,52.0
3760,3134444,0,3.134444,52.0
3761,3135276,0,3.135276,143.0
3762,3136108,0,3.136108,223.0
3763,3136944,0,3.136944,287.0
3764,3137776,0,3.137776,336.0
3765,3138608,0,3.138608,375.0
3766,3139444,0,3.139444,405.0
3767,3140276,0,3.140276,427.0
3768,3141108,0,3.141108,446.0
3769,3141944,0,3.141944,2.0
3770,3142776,0,3.142776,474.0
3771,3143608,0,3.143608,958.0
3772,3144444,0,3.144444,986.0
3773,3145276,0,3.145276,986.0
3774,3146108,0,3.146108,986.0
3775,3146944,0,3.146944,985.0
3776,3147776,0,3.147776,916.0
3777,3148608,0,3.148608,775.0
3778,3149444,0,3.149444,663.0
3779,3150276,0,3.150276,48.0
3780,3151108,0,3.151108,44.0
3781,3151944,0,3.151944,137.0
3782,3152776,0,3.152776,218.0
3783,3153608,0,3.153608,282.0
3784,3154444,0,3.154444,333.0
3785,3155276,0,3.155276,372.0
3786,3156108,0,3.156108,402.0
3787,3156944,0,3.156944,426.0
3788,3157776,0,3.157776,445.0
3789,3158612,0,3.158612,2.0
3790,3159444,0,3.159444,464.0
3791,3160276,0,3.160276,954.0
3792,3161112,0,3.161112,986.0
3793,3161944,0,3.161944,985.0
3794,3162776,0,3.162776,985.0
3795,3163612,0,3.163612,986.0
3796,3164444,0,3.164444,920.0
3797,3165276,0,3.165276,778.0
3798,3166112,0,3.166112,663.0
3799,3166944,0,3.166944,50.0
3800,3167776,0,3.167776,43.0
3801,3168612,0,3.168612,136.0
3802,3169444,0,3.169444,217.0
3803,3170276,0,3.170276,282.0
3804,3171112,0,3.171112,332.0
3805,3171944,0,3.171944,371.0
3806,3172776,0,3.172776,402.0
3807,3173612,0,3.173612,426.0
3808,3174444,0,3.174444,444.0
3809,3175276,0,3.175276,2.0
3810,3176112,0,3.176112,462.0
3811,3176944,0,3.176944,952.0
3812,3177776,0,3.177776,986.0
3813,3178612,0,3.178612,985.0
3814,3179444,0,3.179444,986.0
3815,3180276,0,3.180276,986.0
3816,3181112,0,3.181112,920.0
3817,3181944,0,3.181944,777.0
3818,3182776,0,3.182776,662.0
3819,3183612,0,3.183612,51.0
3820,3184444,0,3.184444,42.0
3821,3185276,0,3.185276,135.0
3822,3186112,0,3.186112,217.0
3823,3186944,0,3.186944,282.0
3824,3187780,0,3.18778,333.0
3825,3188612,0,3.188612,371.0
3826,3189444,0,3.189444,402.0
3827,3190280,0,3.19028,425.0
3828,3191112,0,3.191112,444.0
3829,3191944,0,3.191944,2.0
3830,3192780,0,3.19278,458.0
3831,3193612,0,3.193612,950.0
3832,3194444,0,3.194444,985.0
3833,3195280,0,3.19528,986.0
3834,3196112,0,3.196112,986.0
3835,3196944,0,3.196944,986.0
3836,3197780,0,3.19778,920.0
3837,3198612,0,3.198612,778.0
3838,3199444,0,3.199444,661.0
3839,3200280,0,3.20028,52.0
3840,3201112,0,3.201112,43.0
3841,3201944,0,3.201944,135.0
3842,3202780,0,3.20278,216.0
3843,3203612,0,3.203612,281.0
3844,3204444,0,3.204444,332.0
3845,3205280,0,3.20528,371.0
3846,3206112,0,3.206112,402.0
3847,3206944,0,3.206944,425.0
3848,3207780,0,3.20778,444.0
3849,3208612,0,3.208612,2.0
3850,3209444,0,3.209444,454.0
3851,3210280,0,3.21028,949.0
3852,3211112,0,3.211112,986.0
3853,3211948,0,3.211948,985.0
3854,3212780,0,3.21278,986.0
3855,3213612,0,3.213612,986.0
3856,3214448,0,3.214448,926.0
3857,3215280,0,3.21528,784.0
3858,3216112,0,3.216112,665.0
3859,3216948,0,3.216948,55.0
3860,3217780,0,3.21778,39.0
3861,3218612,0,3.218612,132.0
3862,3219448,0,3.219448,215.0
3863,3220280,0,3.22028,279.0
3864,3221112,0,3.221112,330.0
3865,3221948,0,3.221948,370.0
3866,3222780,0,3.22278,401.0
3867,3223612,0,3.223612,425.0
3868,3224448,0,3.224448,443.0
3869,3225280,0,3.22528,2.0
3870,3226112,0,3.226112,445.0
3871,3226948,0,3.226948,947.0
3872,3227780,0,3.22778,986.0
3873,3228612,0,3.228612,986.0
3874,3229448,0,3.229448,986.0
3875,3230280,0,3.23028,986.0
3876,3231112,0,3.231112,928.0
3877,3231948,0,3.231948,783.0
3878,3232780,0,3.23278,665.0
3879,3233612,0,3.233612,57.0
3880,3234448,0,3.234448,40.0
3881,3235280,0,3.23528,133.0
3882,3236112,0,3.236112,215.0
3883,3236948,0,3.236948,280.0
3884,3237780,0,3.23778,330.0
3885,3238616,0,3.238616,370.0
3886,3239448,0,3.239448,401.0
3887,3240280,0,3.24028,425.0
3888,3241116,0,3.241116,443.0
3889,3241948,0,3.241948,2.0
3890,3242780,0,3.24278,441.0
3891,3243616,0,3.243616,937.0
3892,3244448,0,3.244448,985.0
3893,3245280,0,3.24528,985.0
3894,3246116,0,3.246116,986.0
3895,3246948,0,3.246948,985.0
3896,3247780,0,3.24778,924.0
3897,3248616,0,3.248616,783.0
3898,3249448,0,3.249448,664.0
3899,3250280,0,3.25028,61.0
3900,3251116,0,3.251116,40.0
3901,3251948,0,3.251948,132.0
3902,3252780,0,3.25278,215.0
3903,3253616,0,3.253616,280.0
3904,3254448,0,3.254448,331.0
3905,3255280,0,3.25528,371.0
3906,3256116,0,3.256116,401.0
3907,3256948,0,3.256948,425.0
3908,3257780,0,3.25778,443.0
3909,3258616,0,3.258616,2.0
3910,3259448,0,3.259448,436.0
3911,3260280,0,3.26028,924.0
3912,3261116,0,3.261116,986.0
3913,3261948,0,3.261948,986.0
3914,3262780,0,3.26278,986.0
3915,3263616,0,3.263616,986.0
3916,3264448,0,3.264448,927.0
3917,3265280,0,3.26528,785.0
3918,3266116,0,3.266116,667.0
3919,3266948,0,3.266948,62.0
3920,3267784,0,3.267784,40.0
3921,3268616,0,3.268616,132.0
3922,3269448,0,3.269448,214.0
3923,3270284,0,3.270284,279.0
3924,3271116,0,3.271116,330.0
3925,3271948,0,3.271948,370.0
3926,3272784,0,3.272784,401.0
3927,3273616,0,3.273616,424.0
3928,3274448,0,3.274448,443.0
3929,3275284,0,3.275284,2.0
3930,3276116,0,3.276116,435.0
3931,3276948,0,3.276948,925.0
3932,3277784,0,3.277784,986.0
3933,3278616,0,3.278616,986.0
3934,3279448,0,3.279448,986.0
3935,3280284,0,3.280284,986.0
3936,3281116,0,3.281116,927.0
3937,3281948,0,3.281948,786.0
3938,3282784,0,3.282784,671.0
3939,3283616,0,3.283616,64.0
3940,3284448,0,3.284448,37.0
3941,3285284,0,3.285284,129.0
3942,3286116,0,3.286116,212.0
3943,3286948,0,3.286948,278.0
3944,3287784,0,3.287784,329.0
3945,3288616,0,3.288616,369.0
3946,3289448,0,3.289448,399.0
3947,3290284,0,3.290284,423.0
3948,3291116,0,3.291116,443.0
3949,3291948,0,3.291948,2.0
3950,3292784,0,3.292784,428.0
3951,3293616,0,3.293616,919.0
3952,3294452,0,3.294452,986.0
3953,3295284,0,3.295284,986.0
3954,3296116,0,3.296116,986.0
3955,3296952,0,3.296952,986.0
3956,3297784,0,3.297784,930.0
3957,3298616,0,3.298616,788.0
3958,3299452,0,3.299452,669.0
3959,3300284,0,3.300284,67.0
3960,3301116,0,3.301116,37.0
3961,3301952,0,3.301952,129.0
3962,3302784,0,3.302784,213.0
3963,3303616,0,3.303616,278.0
3964,3304456,0,3.304456,329.0
3965,3305284,0,3.305284,369.0
3966,3306116,0,3.306116,400.0
3967,3306952,0,3.306952,424.0
3968,3307784,0,3.307784,443.0
3969,3308616,0,3.308616,2.0
3970,3309452,0,3.309452,419.0
3971,3310284,0,3.310284,919.0
3972,3311116,0,3.311116,986.0
3973,3311952,0,3.311952,985.0
3974,3312784,0,3.312784,986.0
3975,3313616,0,3.313616,986.0
3976,3314452,0,3.314452,933.0
3977,3315284,0,3.315284,789.0
3978,3316116,0,3.316116,670.0
3979,3316952,0,3.316952,70.0
3980,3317784,0,3.317784,36.0
3981,3318616,0,3.318616,128.0
3982,3319452,0,3.319452,212.0
3983,3320284,0,3.320284,277.0
3984,3321120,0,3.32112,328.0
3985,3321952,0,3.321952,368.0
3986,3322784,0,3.322784,399.0
3987,3323620,0,3.32362,423.0
3988,3324452,0,3.324452,442.0
3989,3325284,0,3.325284,2.0
3990,3326120,0,3.32612,417.0
3991,3326952,0,3.326952,912.0
3992,3327784,0,3.327784,985.0
3993,3328620,0,3.32862,986.0
3994,3329452,0,3.329452,986.0
3995,3330284,0,3.330284,985.0
3996,3331120,0,3.33112,915.0
3997,3331952,0,3.331952,770.0
3998,3332784,0,3.332784,675.0
3999,3333620,0,3.33362,80.0
4000,3334452,0,3.334452,40.0
4001,3335284,0,3.335284,132.0
4002,3336120,0,3.33612,214.0
4003,3336952,0,3.336952,280.0
4004,3337784,0,3.337784,330.0
4005,3338620,0,3.33862,370.0
4006,3339452,0,3.339452,400.0
4007,3340284,0,3.340284,424.0
4008,3341120,0,3.34112,443.0
4009,3341952,0,3.341952,2.0
4010,3342784,0,3.342784,408.0
4011,3343620,0,3.34362,906.0
4012,3344452,0,3.344452,986.0
4013,3345284,0,3.345284,986.0
4014,3346120,0,3.34612,986.0
4015,3346952,0,3.346952,986.0
4016,3347788,0,3.347788,936.0
4017,3348620,0,3.34862,794.0
4018,3349452,0,3.349452,676.0
4019,3350288,0,3.350288,76.0
4020,3351120,0,3.35112,34.0
4021,3351952,0,3.351952,126.0
4022,3352788,0,3.352788,209.0
4023,3353620,0,3.35362,276.0
4024,3354452,0,3.354452,328.0
4025,3355288,0,3.355288,368.0
4026,3356120,0,3.35612,399.0
4027,3356952,0,3.356952,424.0
4028,3357788,0,3.357788,442.0
4029,3358620,0,3.35862,1.0
4030,3359452,0,3.359452,404.0
4031,3360288,0,3.360288,902.0
4032,3361120,0,3.36112,985.0
4033,3361952,0,3.361952,985.0
4034,3362788,0,3.362788,986.0
4035,3363620,0,3.36362,986.0
4036,3364452,0,3.364452,935.0
4037,3365288,0,3.365288,793.0
4038,3366120,0,3.36612,674.0
4039,3366952,0,3.366952,79.0
4040,3367788,0,3.367788,34.0
4041,3368620,0,3.36862,125.0
4042,3369452,0,3.369452,209.0
4043,3370288,0,3.370288,276.0
4044,3371120,0,3.37112,327.0
4045,3371956,0,3.371956,368.0
4046,3372788,0,3.372788,399.0
4047,3373620,0,3.37362,423.0
4048,3374456,0,3.374456,442.0
4049,3375288,0,3.375288,2.0
4050,3376120,0,3.37612,396.0
4051,3376956,0,3.376956,897.0
4052,3377788,0,3.377788,986.0
4053,3378620,0,3.37862,985.0
4054,3379456,0,3.379456,986.0
4055,3380288,0,3.380288,986.0
4056,3381120,0,3.38112,936.0
4057,3381956,0,3.381956,797.0
4058,3382788,0,3.382788,675.0
4059,3383620,0,3.38362,81.0
4060,3384456,0,3.384456,33.0
4061,3385288,0,3.385288,125.0
4062,3386120,0,3.38612,209.0
4063,3386956,0,3.386956,276.0
4064,3387788,0,3.387788,328.0
4065,3388620,0,3.38862,368.0
4066,3389456,0,3.389456,399.0
4067,3390288,0,3.390288,423.0
4068,3391120,0,3.39112,442.0
4069,3391956,0,3.391956,2.0
4070,3392788,0,3.392788,393.0
4071,3393620,0,3.39362,896.0
4072,3394456,0,3.394456,986.0
4073,3395288,0,3.395288,986.0
4074,3396120,0,3.39612,985.0
4075,3396956,0,3.396956,986.0
4076,3397788,0,3.397788,940.0
4077,3398620,0,3.39862,801.0
4078,3399456,0,3.399456,678.0
4079,3400288,0,3.400288,85.0
4080,3401124,0,3.401124,31.0
4081,3401956,0,3.401956,122.0
4082,3402788,0,3.402788,207.0
4083,3403624,0,3.403624,274.0
4084,3404456,0,3.404456,326.0
4085,3405288,0,3.405288,367.0
4086,3406124,0,3.406124,398.0
4087,3406956,0,3.406956,422.0
4088,3407788,0,3.407788,441.0
4089,3408624,0,3.408624,2.0
4090,3409456,0,3.409456,389.0
4091,3410288,0,3.410288,892.0
4092,3411124,0,3.411124,985.0
4093,3411956,0,3.411956,986.0
4094,3412788,0,3.412788,986.0
4095,3413624,0,3.413624,986.0
4096,3414456,0,3.414456,942.0
4097,3415288,0,3.415288,804.0
4098,3416124,0,3.416124,682.0
4099,3416956,0,3.416956,87.0
4100,3417788,0,3.417788,29.0
4101,3418624,0,3.418624,120.0
4102,3419456,0,3.419456,205.0
4103,3420288,0,3.420288,272.0
4104,3421124,0,3.421124,325.0
4105,3421956,0,3.421956,365.0
4106,3422788,0,3.422788,397.0
4107,3423624,0,3.423624,422.0
4108,3424456,0,3.424456,441.0
4109,3425288,0,3.425288,2.0
4110,3426124,0,3.426124,380.0
4111,3426956,0,3.426956,885.0
4112,3427792,0,3.427792,986.0
4113,3428624,0,3.428624,986.0
4114,3429456,0,3.429456,986.0
4115,3430292,0,3.430292,986.0
4116,3431124,0,3.431124,941.0
4117,3431956,0,3.431956,804.0
4118,3432792,0,3.432792,663.0
4119,3433624,0,3.433624,89.0
4120,3434456,0,3.434456,34.0
4121,3435292,0,3.435292,125.0
4122,3436124,0,3.436124,208.0
4123,3436956,0,3.436956,274.0
4124,3437792,0,3.437792,326.0
4125,3438624,0,3.438624,367.0
4126,3439456,0,3.439456,399.0
4127,3440292,0,3.440292,423.0
4128,3441124,0,3.441124,442.0
4129,3441956,0,3.441956,2.0
4130,3442792,0,3.442792,377.0
4131,3443624,0,3.443624,883.0
4132,3444456,0,3.444456,986.0
4133,3445292,0,3.445292,986.0
4134,3446124,0,3.446124,986.0
4135,3446956,0,3.446956,986.0
4136,3447792,0,3.447792,943.0
4137,3448624,0,3.448624,806.0
