id,Total Microseconds,Minute,Seconds,Value
0,1048,1.7466667E-5,0.001048,517.0
1,1784,2.9733334E-5,0.001784,453.0
2,2620,4.3666667E-5,0.00262,460.0
3,3522,5.87E-5,0.003522,457.0
4,1784,2.9733334E-5,0.001784,549.0
5,2620,4.3666667E-5,0.00262,526.0
6,3452,5.7533332E-5,0.003452,545.0
7,4284,7.14E-5,0.004284,522.0
8,5120,8.533333E-5,0.00512,526.0
9,5952,9.92E-5,0.005952,475.0
10,6784,1.13066664E-4,0.006784,468.0
11,7620,1.27E-4,0.00762,462.0
12,8452,1.4086667E-4,0.008452,501.0
13,9284,1.5473334E-4,0.009284,503.0
14,10120,1.6866667E-4,0.01012,513.0
15,10952,1.8253333E-4,0.010952,534.0
16,11788,1.9646667E-4,0.011788,493.0
17,12620,2.1033334E-4,0.01262,531.0
18,13452,2.242E-4,0.013452,488.0
19,14288,2.3813333E-4,0.014288,522.0
20,15120,2.52E-4,0.01512,509.0
21,15952,2.6586666E-4,0.015952,532.0
22,16788,2.798E-4,0.016788,520.0
23,17620,2.9366667E-4,0.01762,496.0
24,18452,3.0753334E-4,0.018452,507.0
25,19288,3.2146668E-4,0.019288,498.0
26,20120,3.3533334E-4,0.02012,494.0
27,20952,3.492E-4,0.020952,498.0
28,21788,3.6313332E-4,0.021788,507.0
29,22620,3.77E-4,0.02262,554.0
30,23452,3.9086665E-4,0.023452,531.0
31,24288,4.048E-4,0.024288,552.0
32,25120,4.1866666E-4,0.02512,543.0
33,25952,4.3253333E-4,0.025952,540.0
34,26788,4.4646667E-4,0.026788,547.0
35,27620,4.6033334E-4,0.02762,507.0
36,28452,4.742E-4,0.028452,503.0
37,29288,4.8813334E-4,0.029288,474.0
38,30120,5.02E-4,0.03012,498.0
39,30952,5.158667E-4,0.030952,511.0
40,31788,5.298E-4,0.031788,493.0
41,32620,5.4366665E-4,0.03262,506.0
42,33452,5.5753335E-4,0.033452,512.0
43,34288,5.714667E-4,0.034288,523.0
44,35120,5.853333E-4,0.03512,506.0
45,35952,5.992E-4,0.035952,501.0
46,36788,6.131333E-4,0.036788,518.0
47,37620,6.27E-4,0.03762,485.0
48,38452,6.4086664E-4,0.038452,525.0
49,39288,6.548E-4,0.039288,492.0
50,40120,6.686667E-4,0.04012,509.0
51,40956,6.826E-4,0.040956,487.0
52,41788,6.9646665E-4,0.041788,511.0
53,42620,7.1033335E-4,0.04262,528.0
54,43456,7.242667E-4,0.043456,508.0
55,44288,7.381333E-4,0.044288,520.0
56,45120,7.52E-4,0.04512,506.0
57,45956,7.659333E-4,0.045956,520.0
58,46788,7.798E-4,0.046788,541.0
59,47620,7.936667E-4,0.04762,478.0
60,48456,8.076E-4,0.048456,504.0
61,49288,8.214667E-4,0.049288,510.0
62,50120,8.353333E-4,0.05012,483.0
63,50956,8.4926665E-4,0.050956,510.0
64,51788,8.6313335E-4,0.051788,513.0
65,52620,8.77E-4,0.05262,500.0
66,53456,8.909333E-4,0.053456,516.0
67,54288,9.048E-4,0.054288,545.0
68,55120,9.1866666E-4,0.05512,520.0
69,55956,9.326E-4,0.055956,504.0
70,56788,9.464667E-4,0.056788,545.0
71,57620,9.6033333E-4,0.05762,519.0
72,58456,9.742667E-4,0.058456,512.0
73,59288,9.881334E-4,0.059288,524.0
74,60120,0.001002,0.06012,474.0
75,60956,0.0010159333,0.060956,500.0
76,61788,0.0010298,0.061788,510.0
77,62620,0.0010436666,0.06262,493.0
78,63456,0.0010576,0.063456,489.0
79,64288,0.0010714667,0.064288,496.0
80,65120,0.0010853333,0.06512,500.0
81,65956,0.0010992667,0.065956,503.0
82,66788,0.0011131334,0.066788,518.0
83,67624,0.0011270667,0.067624,510.0
84,68456,0.0011409334,0.068456,504.0
85,69288,0.0011548,0.069288,544.0
86,70124,0.0011687333,0.070124,514.0
87,70956,0.0011826,0.070956,514.0
88,71788,0.0011964666,0.071788,520.0
89,72624,0.0012104,0.072624,488.0
90,73456,0.0012242667,0.073456,489.0
91,74288,0.0012381333,0.074288,516.0
92,75124,0.0012520667,0.075124,486.0
93,75956,0.0012659334,0.075956,511.0
94,76788,0.0012798,0.076788,525.0
95,77624,0.0012937334,0.077624,521.0
96,78456,0.0013076,0.078456,522.0
97,79288,0.0013214666,0.079288,532.0
98,80124,0.0013354,0.080124,522.0
99,80956,0.0013492666,0.080956,536.0
100,81788,0.0013631333,0.081788,544.0
101,82624,0.0013770667,0.082624,516.0
102,83456,0.0013909333,0.083456,516.0
103,84288,0.0014048,0.084288,493.0
104,85124,0.0014187334,0.085124,495.0
105,85956,0.0014326,0.085956,498.0
106,86788,0.0014464667,0.086788,487.0
107,87624,0.0014604,0.087624,524.0
108,88456,0.0014742666,0.088456,503.0
109,89288,0.0014881333,0.089288,520.0
110,90124,0.0015020666,0.090124,515.0
111,90956,0.0015159333,0.090956,519.0
112,91788,0.0015298,0.091788,525.0
113,92624,0.0015437333,0.092624,526.0
114,93456,0.0015576,0.093456,546.0
115,94292,0.0015715334,0.094292,519.0
116,95124,0.0015854,0.095124,505.0
117,95956,0.0015992667,0.095956,544.0
118,96792,0.0016132,0.096792,512.0
119,97624,0.0016270666,0.097624,520.0
120,98456,0.0016409333,0.098456,512.0
121,99292,0.0016548666,0.099292,482.0
122,100124,0.0016687333,0.100124,465.0
123,100956,0.0016826,0.100956,458.0
124,101792,0.0016965333,0.101792,496.0
125,102624,0.0017104,0.102624,474.0
126,103456,0.0017242667,0.103456,500.0
127,104292,0.0017382,0.104292,526.0
128,105124,0.0017520667,0.105124,519.0
129,105956,0.0017659334,0.105956,537.0
130,106792,0.0017798666,0.106792,543.0
131,107624,0.0017937333,0.107624,555.0
132,108456,0.0018076,0.108456,517.0
133,109292,0.0018215333,0.109292,506.0
134,110124,0.0018354,0.110124,540.0
135,110956,0.0018492667,0.110956,491.0
136,111792,0.0018632,0.111792,511.0
137,112624,0.0018770667,0.112624,493.0
138,113456,0.0018909334,0.113456,513.0
139,114292,0.0019048667,0.114292,524.0
140,115124,0.0019187334,0.115124,523.0
141,115956,0.0019326,0.115956,517.0
142,116792,0.0019465333,0.116792,488.0
143,117624,0.0019604,0.117624,504.0
144,118456,0.0019742667,0.118456,523.0
145,119292,0.0019882,0.119292,531.0
146,120124,0.0020020667,0.120124,499.0
147,120960,0.002016,0.12096,500.0
148,121792,0.0020298667,0.121792,507.0
149,122624,0.0020437334,0.122624,517.0
150,123460,0.0020576667,0.12346,472.0
151,124292,0.0020715334,0.124292,519.0
152,125124,0.0020854,0.125124,518.0
153,125960,0.0020993333,0.12596,520.0
154,126792,0.0021132,0.126792,513.0
155,127624,0.0021270667,0.127624,530.0
156,128460,0.002141,0.12846,558.0
157,129292,0.0021548667,0.129292,546.0
158,130124,0.0021687334,0.130124,559.0
159,130960,0.0021826667,0.13096,529.0
160,131792,0.0021965334,0.131792,496.0
161,132624,0.0022104,0.132624,510.0
162,133460,0.0022243334,0.13346,501.0
163,134292,0.0022382,0.134292,507.0
164,135124,0.0022520667,0.135124,511.0
165,135960,0.002266,0.13596,479.0
166,136792,0.0022798667,0.136792,506.0
167,137624,0.0022937334,0.137624,509.0
168,138460,0.0023076667,0.13846,514.0
169,139292,0.0023215334,0.139292,474.0
170,140124,0.0023354,0.140124,513.0
171,140960,0.0023493334,0.14096,517.0
172,141792,0.0023632,0.141792,503.0
173,142624,0.0023770668,0.142624,490.0
174,143460,0.002391,0.14346,472.0
175,144292,0.0024048667,0.144292,509.0
176,145128,0.0024188,0.145128,541.0
177,145960,0.0024326667,0.14596,547.0
178,146792,0.0024465334,0.146792,510.0
179,147628,0.0024604667,0.147628,479.0
180,148460,0.0024743334,0.14846,518.0
181,149292,0.0024882,0.149292,557.0
182,150128,0.0025021334,0.150128,564.0
183,150960,0.002516,0.15096,498.0
184,151792,0.0025298668,0.151792,515.0
185,152628,0.0025438,0.152628,553.0
186,153460,0.0025576667,0.15346,537.0
187,154292,0.0025715334,0.154292,491.0
188,155128,0.0025854667,0.155128,456.0
189,155960,0.0025993334,0.15596,461.0
190,156792,0.0026132,0.156792,510.0
191,157628,0.0026271334,0.157628,506.0
192,158460,0.002641,0.15846,477.0
193,159292,0.0026548668,0.159292,459.0
194,160128,0.0026688,0.160128,536.0
195,160960,0.0026826668,0.16096,568.0
196,161792,0.0026965332,0.161792,525.0
197,162628,0.0027104667,0.162628,495.0
198,163460,0.0027243334,0.16346,492.0
199,164292,0.0027382,0.164292,558.0
200,165128,0.0027521334,0.165128,549.0
201,165960,0.002766,0.16596,512.0
202,166792,0.0027798666,0.166792,482.0
203,167628,0.0027938,0.167628,526.0
204,168460,0.0028076668,0.16846,543.0
205,169292,0.0028215332,0.169292,514.0
206,170128,0.0028354668,0.170128,492.0
207,170960,0.0028493332,0.17096,505.0
208,171796,0.0028632667,0.171796,536.0
209,172628,0.0028771334,0.172628,533.0
210,173460,0.002891,0.17346,485.0
211,174296,0.0029049334,0.174296,484.0
212,175128,0.0029188,0.175128,517.0
213,175960,0.0029326666,0.17596,540.0
214,176796,0.0029466,0.176796,489.0
215,177628,0.0029604668,0.177628,461.0
216,178460,0.0029743332,0.17846,471.0
217,179296,0.0029882668,0.179296,534.0
218,180128,0.0030021332,0.180128,518.0
219,180960,0.003016,0.18096,476.0
220,181796,0.0030299334,0.181796,497.0
221,182628,0.0030438,0.182628,527.0
222,183460,0.0030576666,0.18346,556.0
223,184296,0.0030716,0.184296,515.0
224,185128,0.0030854666,0.185128,522.0
225,185960,0.0030993333,0.18596,546.0
226,186796,0.0031132668,0.186796,553.0
227,187628,0.0031271332,0.187628,537.0
228,188460,0.003141,0.18846,477.0
229,189296,0.0031549332,0.189296,512.0
230,190128,0.0031688,0.190128,532.0
231,190960,0.0031826666,0.19096,544.0
232,191796,0.0031966,0.191796,486.0
233,192628,0.0032104666,0.192628,458.0
234,193460,0.0032243333,0.19346,516.0
235,194296,0.0032382666,0.194296,534.0
236,195128,0.0032521333,0.195128,510.0
237,195960,0.003266,0.19596,476.0
238,196796,0.0032799332,0.196796,509.0
239,197628,0.0032938,0.197628,533.0
240,198464,0.0033077332,0.198464,528.0
241,199296,0.0033216,0.199296,498.0
242,200128,0.0033354666,0.200128,483.0
243,200964,0.0033494,0.200964,533.0
244,201796,0.0033632666,0.201796,532.0
245,202628,0.0033771333,0.202628,485.0
246,203464,0.0033910666,0.203464,468.0
247,204296,0.0034049333,0.204296,519.0
248,205128,0.0034188,0.205128,546.0
249,205964,0.0034327332,0.205964,547.0
250,206796,0.0034466,0.206796,488.0
251,207628,0.0034604666,0.207628,504.0
252,208464,0.0034744,0.208464,521.0
253,209296,0.0034882666,0.209296,546.0
254,210128,0.0035021333,0.210128,498.0
255,210964,0.0035160666,0.210964,484.0
256,211796,0.0035299333,0.211796,539.0
257,212628,0.0035438,0.212628,518.0
258,213464,0.0035577333,0.213464,536.0
259,214296,0.0035716,0.214296,479.0
260,215128,0.0035854666,0.215128,500.0
261,215964,0.0035994,0.215964,534.0
262,216796,0.0036132666,0.216796,524.0
263,217628,0.0036271333,0.217628,499.0
264,218464,0.0036410666,0.218464,477.0
265,219296,0.0036549333,0.219296,530.0
266,220128,0.0036688,0.220128,554.0
267,220964,0.0036827333,0.220964,530.0
268,221796,0.0036966,0.221796,513.0
269,222628,0.0037104667,0.222628,491.0
270,223464,0.0037244,0.223464,534.0
271,224296,0.0037382666,0.224296,527.0
272,225128,0.0037521333,0.225128,498.0
273,225964,0.0037660666,0.225964,506.0
274,226796,0.0037799333,0.226796,497.0
275,227632,0.0037938666,0.227632,529.0
276,228464,0.0038077333,0.228464,497.0
277,229296,0.0038216,0.229296,510.0
278,230132,0.0038355333,0.230132,499.0
279,230964,0.0038494,0.230964,528.0
280,231796,0.0038632667,0.231796,533.0
281,232632,0.0038772,0.232632,521.0
282,233464,0.0038910666,0.233464,504.0
283,234296,0.0039049333,0.234296,499.0
284,235132,0.0039188666,0.235132,515.0
285,235964,0.0039327336,0.235964,536.0
286,236796,0.0039466,0.236796,521.0
287,237632,0.0039605335,0.237632,513.0
288,238464,0.0039744,0.238464,491.0
289,239296,0.0039882665,0.239296,533.0
290,240132,0.0040022,0.240132,533.0
291,240964,0.0040160664,0.240964,519.0
292,241796,0.0040299334,0.241796,471.0
293,242632,0.004043867,0.242632,523.0
294,243464,0.0040577333,0.243464,538.0
295,244296,0.0040716,0.244296,523.0
296,245132,0.0040855333,0.245132,479.0
297,245964,0.0040994,0.245964,500.0
298,246796,0.0041132667,0.246796,553.0
299,247632,0.0041272,0.247632,534.0
300,248464,0.0041410667,0.248464,506.0
301,249296,0.004154933,0.249296,492.0
302,250132,0.0041688667,0.250132,521.0
303,250964,0.004182733,0.250964,540.0
304,251796,0.0041966,0.251796,529.0
305,252632,0.004210533,0.252632,517.0
306,253464,0.0042244,0.253464,486.0
307,254300,0.0042383336,0.2543,535.0
308,255132,0.0042522,0.255132,513.0
309,255964,0.0042660665,0.255964,516.0
310,256800,0.00428,0.2568,475.0
311,257632,0.0042938665,0.257632,484.0
312,258464,0.0043077334,0.258464,535.0
313,259300,0.0043216664,0.2593,530.0
314,260132,0.0043355334,0.260132,515.0
315,260964,0.0043494,0.260964,476.0
316,261800,0.0043633333,0.2618,555.0
317,262632,0.0043772,0.262632,550.0
318,263464,0.0043910667,0.263464,524.0
319,264300,0.004405,0.2643,477.0
320,265132,0.0044188667,0.265132,502.0
321,265964,0.004432733,0.265964,550.0
322,266800,0.0044466667,0.2668,533.0
323,267632,0.004460533,0.267632,515.0
324,268464,0.0044744,0.268464,485.0
325,269300,0.004488333,0.2693,534.0
326,270132,0.0045022,0.270132,499.0
327,270964,0.0045160665,0.270964,525.0
328,271800,0.00453,0.2718,492.0
329,272632,0.0045438665,0.272632,501.0
330,273464,0.0045577334,0.273464,522.0
331,274300,0.0045716665,0.2743,531.0
332,275132,0.0045855334,0.275132,529.0
333,275964,0.0045994,0.275964,476.0
334,276800,0.0046133334,0.2768,514.0
335,277632,0.0046272,0.277632,519.0
336,278468,0.0046411334,0.278468,521.0
337,279300,0.004655,0.2793,474.0
338,280132,0.0046688667,0.280132,473.0
339,280968,0.0046828,0.280968,538.0
340,281800,0.0046966667,0.2818,527.0
341,282632,0.004710533,0.282632,511.0
342,283468,0.0047244667,0.283468,483.0
343,284300,0.004738333,0.2843,503.0
344,285132,0.0047522,0.285132,536.0
345,285968,0.004766133,0.285968,529.0
346,286800,0.00478,0.2868,507.0
347,287632,0.0047938665,0.287632,505.0
348,288468,0.0048078,0.288468,545.0
349,289300,0.0048216665,0.2893,544.0
350,290132,0.0048355334,0.290132,516.0
351,290968,0.0048494665,0.290968,495.0
352,291800,0.0048633334,0.2918,495.0
353,292632,0.0048772,0.292632,512.0
354,293468,0.0048911334,0.293468,513.0
355,294300,0.004905,0.2943,473.0
356,295132,0.004918867,0.295132,496.0
357,295968,0.0049328,0.295968,524.0
358,296800,0.004946667,0.2968,531.0
359,297632,0.004960533,0.297632,521.0
360,298468,0.0049744667,0.298468,506.0
361,299300,0.004988333,0.2993,523.0
362,300132,0.0050022,0.300132,519.0
363,300968,0.005016133,0.300968,547.0
364,301800,0.00503,0.3018,522.0
365,302632,0.0050438666,0.302632,487.0
366,303468,0.0050578,0.303468,520.0
367,304300,0.0050716666,0.3043,518.0
368,305132,0.0050855335,0.305132,517.0
369,305968,0.0050994665,0.305968,484.0
370,306800,0.0051133335,0.3068,480.0
371,307636,0.0051272665,0.307636,546.0
372,308468,0.0051411334,0.308468,518.0
373,309300,0.005155,0.3093,501.0
374,310136,0.0051689334,0.310136,493.0
375,310968,0.0051828,0.310968,494.0
376,311800,0.005196667,0.3118,525.0
377,312636,0.0052106,0.312636,525.0
378,313468,0.005224467,0.313468,516.0
379,314300,0.0052383333,0.3143,484.0
380,315136,0.005252267,0.315136,496.0
381,315968,0.005266133,0.315968,512.0
382,316800,0.00528,0.3168,514.0
383,317636,0.005293933,0.317636,540.0
384,318472,0.0053078667,0.318472,481.0
385,319300,0.0053216666,0.3193,506.0
386,320136,0.0053356,0.320136,543.0
387,320968,0.0053494666,0.320968,523.0
388,321800,0.0053633335,0.3218,525.0
389,322636,0.0053772666,0.322636,498.0
390,323468,0.0053911335,0.323468,502.0
391,324300,0.005405,0.3243,524.0
392,325136,0.0054189335,0.325136,524.0
393,325968,0.0054328,0.325968,513.0
394,326800,0.005446667,0.3268,509.0
395,327636,0.0054606,0.327636,490.0
396,328468,0.005474467,0.328468,505.0
397,329300,0.0054883333,0.3293,542.0
398,330136,0.005502267,0.330136,485.0
399,330968,0.0055161333,0.330968,542.0
400,331800,0.00553,0.3318,496.0
401,332636,0.0055439333,0.332636,502.0
402,333468,0.0055578,0.333468,521.0
403,334304,0.005571733,0.334304,524.0
404,335136,0.0055856,0.335136,542.0
405,335968,0.0055994666,0.335968,492.0
406,336804,0.0056134,0.336804,510.0
407,337636,0.0056272666,0.337636,530.0
408,338468,0.0056411335,0.338468,532.0
409,339304,0.0056550666,0.339304,509.0
410,340136,0.0056689335,0.340136,486.0
411,340968,0.0056828,0.340968,505.0
412,341804,0.0056967335,0.341804,500.0
413,342636,0.0057106,0.342636,528.0
414,343468,0.005724467,0.343468,492.0
415,344304,0.0057384,0.344304,542.0
416,345136,0.005752267,0.345136,497.0
417,345968,0.0057661333,0.345968,484.0
418,346804,0.005780067,0.346804,502.0
419,347636,0.0057939333,0.347636,499.0
420,348468,0.0058078,0.348468,519.0
421,349304,0.0058217333,0.349304,475.0
422,350136,0.0058356,0.350136,486.0
423,350968,0.0058494667,0.350968,511.0
424,351804,0.0058634,0.351804,550.0
425,352636,0.0058772666,0.352636,539.0
426,353468,0.0058911336,0.353468,509.0
427,354304,0.0059050666,0.354304,493.0
428,355136,0.0059189335,0.355136,539.0
429,355968,0.0059328,0.355968,555.0
430,356804,0.0059467335,0.356804,527.0
431,357636,0.0059606,0.357636,519.0
432,358472,0.0059745335,0.358472,523.0
433,359304,0.0059884,0.359304,540.0
434,360136,0.006002267,0.360136,524.0
435,360972,0.0060162,0.360972,481.0
436,361804,0.006030067,0.361804,509.0
437,362636,0.0060439333,0.362636,482.0
438,363472,0.006057867,0.363472,482.0
439,364304,0.0060717333,0.364304,501.0
440,365136,0.0060856,0.365136,487.0
441,365972,0.0060995333,0.365972,512.0
442,366804,0.0061134,0.366804,503.0
443,367636,0.0061272667,0.367636,489.0
444,368472,0.0061412,0.368472,536.0
445,369304,0.0061550667,0.369304,521.0
446,370136,0.006168933,0.370136,569.0
447,370972,0.0061828666,0.370972,502.0
448,371804,0.0061967336,0.371804,463.0
449,372636,0.0062106,0.372636,535.0
450,373472,0.0062245335,0.373472,503.0
451,374304,0.0062384,0.374304,525.0
452,375136,0.0062522665,0.375136,470.0
453,375972,0.0062662,0.375972,488.0
454,376804,0.0062800664,0.376804,548.0
455,377636,0.0062939334,0.377636,495.0
456,378472,0.006307867,0.378472,521.0
457,379304,0.0063217334,0.379304,506.0
458,380136,0.0063356,0.380136,534.0
459,380972,0.0063495333,0.380972,536.0
460,381804,0.0063634,0.381804,501.0
461,382636,0.0063772667,0.382636,521.0
462,383472,0.0063912,0.383472,503.0
463,384304,0.0064050667,0.384304,507.0
464,385140,0.006419,0.38514,505.0
465,385972,0.0064328667,0.385972,469.0
466,386804,0.006446733,0.386804,527.0
467,387640,0.0064606667,0.38764,492.0
468,388472,0.006474533,0.388472,497.0
469,389304,0.0064884,0.389304,530.0
470,390140,0.0065023336,0.39014,551.0
471,390972,0.0065162,0.390972,552.0
472,391804,0.0065300665,0.391804,495.0
473,392640,0.006544,0.39264,507.0
474,393472,0.0065578665,0.393472,536.0
475,394304,0.0065717334,0.394304,543.0
476,395140,0.0065856664,0.39514,519.0
477,395972,0.0065995334,0.395972,508.0
478,396804,0.0066134,0.396804,513.0
479,397640,0.0066273334,0.39764,510.0
480,398472,0.0066412,0.398472,514.0
481,399304,0.0066550667,0.399304,522.0
482,400140,0.006669,0.40014,514.0
483,400972,0.0066828667,0.400972,489.0
484,401804,0.006696733,0.401804,497.0
485,402640,0.0067106667,0.40264,530.0
486,403472,0.006724533,0.403472,514.0
487,404304,0.0067384,0.404304,520.0
488,405140,0.006752333,0.40514,515.0
489,405972,0.0067662,0.405972,512.0
490,406804,0.0067800665,0.406804,526.0
491,407640,0.006794,0.40764,493.0
492,408472,0.0068078665,0.408472,501.0
493,409304,0.0068217334,0.409304,506.0
494,410140,0.0068356665,0.41014,498.0
495,410972,0.0068495334,0.410972,519.0
496,411804,0.0068634,0.411804,528.0
497,412640,0.0068773334,0.41264,528.0
498,413472,0.0068912,0.413472,508.0
499,414308,0.0069051334,0.414308,522.0
500,415140,0.006919,0.41514,522.0
501,415972,0.0069328668,0.415972,506.0
502,416808,0.0069468,0.416808,513.0
503,417640,0.0069606667,0.41764,498.0
504,418472,0.006974533,0.418472,499.0
505,419308,0.0069884667,0.419308,491.0
506,420140,0.007002333,0.42014,498.0
507,420972,0.0070162,0.420972,516.0
508,421808,0.007030133,0.421808,510.0
509,422640,0.007044,0.42264,508.0
510,423472,0.0070578665,0.423472,523.0
511,424308,0.0070718,0.424308,521.0
512,425140,0.0070856665,0.42514,514.0
513,425972,0.0070995335,0.425972,501.0
514,426808,0.0071134665,0.426808,519.0
515,427640,0.0071273334,0.42764,521.0
516,428472,0.0071412,0.428472,512.0
517,429308,0.0071551334,0.429308,519.0
518,430140,0.007169,0.43014,505.0
519,430972,0.007182867,0.430972,499.0
520,431808,0.0071968,0.431808,500.0
521,432640,0.007210667,0.43264,532.0
522,433472,0.0072245332,0.433472,531.0
523,434308,0.0072384668,0.434308,516.0
524,435140,0.007252333,0.43514,528.0
525,435972,0.0072662,0.435972,538.0
526,436808,0.007280133,0.436808,524.0
527,437640,0.007294,0.43764,518.0
528,438476,0.007307933,0.438476,514.0
529,439308,0.0073218,0.439308,503.0
530,440140,0.0073356666,0.44014,503.0
531,440976,0.0073496,0.440976,498.0
532,441808,0.0073634665,0.441808,497.0
533,442640,0.0073773335,0.44264,496.0
534,443476,0.0073912665,0.443476,505.0
535,444308,0.0074051335,0.444308,513.0
536,445140,0.007419,0.44514,525.0
537,445976,0.0074329334,0.445976,527.0
