id,Total Microseconds,Minute,Seconds,Value
0,1048,1.7466667E-5,0.001048,517.0
1,1784,2.9733334E-5,0.001784,453.0
2,2620,4.3666667E-5,0.00262,460.0
3,3522,5.87E-5,0.003522,457.0
4,1784,2.9733334E-5,0.001784,549.0
5,2620,4.3666667E-5,0.00262,526.0
6,3452,5.7533332E-5,0.003452,545.0
7,4284,7.14E-5,0.004284,522.0
8,5120,8.533333E-5,0.00512,526.0
9,5952,9.92E-5,0.005952,475.0
10,6784,1.13066664E-4,0.006784,468.0
11,7620,1.27E-4,0.00762,462.0
12,8452,1.4086667E-4,0.008452,501.0
13,9284,1.5473334E-4,0.009284,503.0
14,10120,1.6866667E-4,0.01012,513.0
15,10952,1.8253333E-4,0.010952,534.0
16,11788,1.9646667E-4,0.011788,493.0
17,12620,2.1033334E-4,0.01262,531.0
18,13452,2.242E-4,0.013452,488.0
19,14288,2.3813333E-4,0.014288,522.0
20,15120,2.52E-4,0.01512,509.0
21,15952,2.6586666E-4,0.015952,532.0
22,16788,2.798E-4,0.016788,520.0
23,17620,2.9366667E-4,0.01762,496.0
24,18452,3.0753334E-4,0.018452,507.0
25,19288,3.2146668E-4,0.019288,498.0
26,20120,3.3533334E-4,0.02012,494.0
27,20952,3.492E-4,0.020952,498.0
28,21788,3.6313332E-4,0.021788,507.0
29,22620,3.77E-4,0.02262,554.0
30,23452,3.9086665E-4,0.023452,531.0
31,24288,4.048E-4,0.024288,552.0
32,25120,4.1866666E-4,0.02512,543.0
33,25952,4.3253333E-4,0.025952,540.0
34,26788,4.4646667E-4,0.026788,547.0
35,27620,4.6033334E-4,0.02762,507.0
36,28452,4.742E-4,0.028452,503.0
37,29288,4.8813334E-4,0.029288,474.0
38,30120,5.02E-4,0.03012,498.0
39,30952,5.158667E-4,0.030952,511.0
40,31788,5.298E-4,0.031788,493.0
41,32620,5.4366665E-4,0.03262,506.0
42,33452,5.5753335E-4,0.033452,512.0
43,34288,5.714667E-4,0.034288,523.0
44,35120,5.853333E-4,0.03512,506.0
45,35952,5.992E-4,0.035952,501.0
46,36788,6.131333E-4,0.036788,518.0
47,37620,6.27E-4,0.03762,485.0
48,38452,6.4086664E-4,0.038452,525.0
49,39288,6.548E-4,0.039288,492.0
50,40120,6.686667E-4,0.04012,509.0
51,40956,6.826E-4,0.040956,487.0
52,41788,6.9646665E-4,0.041788,511.0
53,42620,7.1033335E-4,0.04262,528.0
54,43456,7.242667E-4,0.043456,508.0
55,44288,7.381333E-4,0.044288,520.0
56,45120,7.52E-4,0.04512,506.0
57,45956,7.659333E-4,0.045956,520.0
58,46788,7.798E-4,0.046788,541.0
59,47620,7.936667E-4,0.04762,478.0
60,48456,8.076E-4,0.048456,504.0
61,49288,8.214667E-4,0.049288,510.0
62,50120,8.353333E-4,0.05012,483.0
63,50956,8.4926665E-4,0.050956,510.0
64,51788,8.6313335E-4,0.051788,513.0
65,52620,8.77E-4,0.05262,500.0
66,53456,8.909333E-4,0.053456,516.0
67,54288,9.048E-4,0.054288,545.0
68,55120,9.1866666E-4,0.05512,520.0
69,55956,9.326E-4,0.055956,504.0
70,56788,9.464667E-4,0.056788,545.0
71,57620,9.6033333E-4,0.05762,519.0
72,58456,9.742667E-4,0.058456,512.0
73,59288,9.881334E-4,0.059288,524.0
74,60120,0.001002,0.06012,474.0
75,60956,0.0010159333,0.060956,500.0
76,61788,0.0010298,0.061788,510.0
77,62620,0.0010436666,0.06262,493.0
78,63456,0.0010576,0.063456,489.0
79,64288,0.0010714667,0.064288,496.0
80,65120,0.0010853333,0.06512,500.0
81,65956,0.0010992667,0.065956,503.0
82,66788,0.0011131334,0.066788,518.0
83,67624,0.0011270667,0.067624,510.0
84,68456,0.0011409334,0.068456,504.0
85,69288,0.0011548,0.069288,544.0
86,70124,0.0011687333,0.070124,514.0
87,70956,0.0011826,0.070956,514.0
88,71788,0.0011964666,0.071788,520.0
89,72624,0.0012104,0.072624,488.0
90,73456,0.0012242667,0.073456,489.0
91,74288,0.0012381333,0.074288,516.0
92,75124,0.0012520667,0.075124,486.0
93,75956,0.0012659334,0.075956,511.0
94,76788,0.0012798,0.076788,525.0
95,77624,0.0012937334,0.077624,521.0
96,78456,0.0013076,0.078456,522.0
97,79288,0.0013214666,0.079288,532.0
98,80124,0.0013354,0.080124,522.0
99,80956,0.0013492666,0.080956,536.0
100,81788,0.0013631333,0.081788,544.0
101,82624,0.0013770667,0.082624,516.0
102,83456,0.0013909333,0.083456,516.0
103,84288,0.0014048,0.084288,493.0
104,85124,0.0014187334,0.085124,495.0
105,85956,0.0014326,0.085956,498.0
106,86788,0.0014464667,0.086788,487.0
107,87624,0.0014604,0.087624,524.0
108,88456,0.0014742666,0.088456,503.0
109,89288,0.0014881333,0.089288,520.0
110,90124,0.0015020666,0.090124,515.0
111,90956,0.0015159333,0.090956,519.0
112,91788,0.0015298,0.091788,525.0
113,92624,0.0015437333,0.092624,526.0
114,93456,0.0015576,0.093456,546.0
115,94292,0.0015715334,0.094292,519.0
116,95124,0.0015854,0.095124,505.0
117,95956,0.0015992667,0.095956,544.0
118,96792,0.0016132,0.096792,512.0
119,97624,0.0016270666,0.097624,520.0
120,98456,0.0016409333,0.098456,512.0
121,99292,0.0016548666,0.099292,482.0
122,100124,0.0016687333,0.100124,465.0
123,100956,0.0016826,0.100956,458.0
124,101792,0.0016965333,0.101792,496.0
125,102624,0.0017104,0.102624,474.0
126,103456,0.0017242667,0.103456,500.0
127,104292,0.0017382,0.104292,526.0
128,105124,0.0017520667,0.105124,519.0
129,105956,0.0017659334,0.105956,537.0
130,106792,0.0017798666,0.106792,543.0
131,107624,0.0017937333,0.107624,555.0
132,108456,0.0018076,0.108456,517.0
133,109292,0.0018215333,0.109292,506.0
134,110124,0.0018354,0.110124,540.0
135,110956,0.0018492667,0.110956,491.0
136,111792,0.0018632,0.111792,511.0
137,112624,0.0018770667,0.112624,493.0
138,113456,0.0018909334,0.113456,513.0
139,114292,0.0019048667,0.114292,524.0
140,115124,0.0019187334,0.115124,523.0
141,115956,0.0019326,0.115956,517.0
142,116792,0.0019465333,0.116792,488.0
143,117624,0.0019604,0.117624,504.0
144,118456,0.0019742667,0.118456,523.0
145,119292,0.0019882,0.119292,531.0
146,120124,0.0020020667,0.120124,499.0
147,120960,0.002016,0.12096,500.0
148,121792,0.0020298667,0.121792,507.0
149,122624,0.0020437334,0.122624,517.0
150,123460,0.0020576667,0.12346,472.0
151,124292,0.0020715334,0.124292,519.0
152,125124,0.0020854,0.125124,518.0
153,125960,0.0020993333,0.12596,520.0
154,126792,0.0021132,0.126792,513.0
155,127624,0.0021270667,0.127624,530.0
156,128460,0.002141,0.12846,558.0
157,129292,0.0021548667,0.129292,546.0
158,130124,0.0021687334,0.130124,559.0
159,130960,0.0021826667,0.13096,529.0
160,131792,0.0021965334,0.131792,496.0
161,132624,0.0022104,0.132624,510.0
162,133460,0.0022243334,0.13346,501.0
163,134292,0.0022382,0.134292,507.0
164,135124,0.0022520667,0.135124,511.0
165,135960,0.002266,0.13596,479.0
166,136792,0.0022798667,0.136792,506.0
167,137624,0.0022937334,0.137624,509.0
168,138460,0.0023076667,0.13846,514.0
169,139292,0.0023215334,0.139292,474.0
170,140124,0.0023354,0.140124,513.0
171,140960,0.0023493334,0.14096,517.0
172,141792,0.0023632,0.141792,503.0
173,142624,0.0023770668,0.142624,490.0
174,143460,0.002391,0.14346,472.0
175,144292,0.0024048667,0.144292,509.0
176,145128,0.0024188,0.145128,541.0
177,145960,0.0024326667,0.14596,547.0
178,146792,0.0024465334,0.146792,510.0
179,147628,0.0024604667,0.147628,479.0
180,148460,0.0024743334,0.14846,518.0
181,149292,0.0024882,0.149292,557.0
182,150128,0.0025021334,0.150128,564.0
183,150960,0.002516,0.15096,498.0
184,151792,0.0025298668,0.151792,515.0
185,152628,0.0025438,0.152628,553.0
186,153460,0.0025576667,0.15346,537.0
187,154292,0.0025715334,0.154292,491.0
188,155128,0.0025854667,0.155128,456.0
189,155960,0.0025993334,0.15596,461.0
190,156792,0.0026132,0.156792,510.0
191,157628,0.0026271334,0.157628,506.0
192,158460,0.002641,0.15846,477.0
193,159292,0.0026548668,0.159292,459.0
194,160128,0.0026688,0.160128,536.0
195,160960,0.0026826668,0.16096,568.0
196,161792,0.0026965332,0.161792,525.0
197,162628,0.0027104667,0.162628,495.0
198,163460,0.0027243334,0.16346,492.0
199,164292,0.0027382,0.164292,558.0
200,165128,0.0027521334,0.165128,549.0
201,165960,0.002766,0.16596,512.0
202,166792,0.0027798666,0.166792,482.0
203,167628,0.0027938,0.167628,526.0
204,168460,0.0028076668,0.16846,543.0
205,169292,0.0028215332,0.169292,514.0
206,170128,0.0028354668,0.170128,492.0
207,170960,0.0028493332,0.17096,505.0
208,171796,0.0028632667,0.171796,536.0
209,172628,0.0028771334,0.172628,533.0
210,173460,0.002891,0.17346,485.0
211,174296,0.0029049334,0.174296,484.0
212,175128,0.0029188,0.175128,517.0
213,175960,0.0029326666,0.17596,540.0
214,176796,0.0029466,0.176796,489.0
215,177628,0.0029604668,0.177628,461.0
216,178460,0.0029743332,0.17846,471.0
217,179296,0.0029882668,0.179296,534.0
218,180128,0.0030021332,0.180128,518.0
219,180960,0.003016,0.18096,476.0
220,181796,0.0030299334,0.181796,497.0
221,182628,0.0030438,0.182628,527.0
222,183460,0.0030576666,0.18346,556.0
223,184296,0.0030716,0.184296,515.0
224,185128,0.0030854666,0.185128,522.0
225,185960,0.0030993333,0.18596,546.0
226,186796,0.0031132668,0.186796,553.0
227,187628,0.0031271332,0.187628,537.0
228,188460,0.003141,0.18846,477.0
229,189296,0.0031549332,0.189296,512.0
230,190128,0.0031688,0.190128,532.0
231,190960,0.0031826666,0.19096,544.0
232,191796,0.0031966,0.191796,486.0
233,192628,0.0032104666,0.192628,458.0
234,193460,0.0032243333,0.19346,516.0
235,194296,0.0032382666,0.194296,534.0
236,195128,0.0032521333,0.195128,510.0
237,195960,0.003266,0.19596,476.0
238,196796,0.0032799332,0.196796,509.0
239,197628,0.0032938,0.197628,533.0
240,198464,0.0033077332,0.198464,528.0
241,199296,0.0033216,0.199296,498.0
242,200128,0.0033354666,0.200128,483.0
243,200964,0.0033494,0.200964,533.0
244,201796,0.0033632666,0.201796,532.0
245,202628,0.0033771333,0.202628,485.0
246,203464,0.0033910666,0.203464,468.0
247,204296,0.0034049333,0.204296,519.0
248,205128,0.0034188,0.205128,546.0
249,205964,0.0034327332,0.205964,547.0
250,206796,0.0034466,0.206796,488.0
251,207628,0.0034604666,0.207628,504.0
252,208464,0.0034744,0.208464,521.0
253,209296,0.0034882666,0.209296,546.0
254,210128,0.0035021333,0.210128,498.0
255,210964,0.0035160666,0.210964,484.0
256,211796,0.0035299333,0.211796,539.0
257,212628,0.0035438,0.212628,518.0
258,213464,0.0035577333,0.213464,536.0
259,214296,0.0035716,0.214296,479.0
260,215128,0.0035854666,0.215128,500.0
261,215964,0.0035994,0.215964,534.0
262,216796,0.0036132666,0.216796,524.0
263,217628,0.0036271333,0.217628,499.0
264,218464,0.0036410666,0.218464,477.0
265,219296,0.0036549333,0.219296,530.0
266,220128,0.0036688,0.220128,554.0
267,220964,0.0036827333,0.220964,530.0
268,221796,0.0036966,0.221796,513.0
269,222628,0.0037104667,0.222628,491.0
270,223464,0.0037244,0.223464,534.0
271,224296,0.0037382666,0.224296,527.0
272,225128,0.0037521333,0.225128,498.0
273,225964,0.0037660666,0.225964,506.0
274,226796,0.0037799333,0.226796,497.0
275,227632,0.0037938666,0.227632,529.0
276,228464,0.0038077333,0.228464,497.0
277,229296,0.0038216,0.229296,510.0
278,230132,0.0038355333,0.230132,499.0
279,230964,0.0038494,0.230964,528.0
280,231796,0.0038632667,0.231796,533.0
281,232632,0.0038772,0.232632,521.0
282,233464,0.0038910666,0.233464,504.0
283,234296,0.0039049333,0.234296,499.0
284,235132,0.0039188666,0.235132,515.0
285,235964,0.0039327336,0.235964,536.0
286,236796,0.0039466,0.236796,521.0
287,237632,0.0039605335,0.237632,513.0
288,238464,0.0039744,0.238464,491.0
289,239296,0.0039882665,0.239296,533.0
290,240132,0.0040022,0.240132,533.0
291,240964,0.0040160664,0.240964,519.0
292,241796,0.0040299334,0.241796,471.0
293,242632,0.004043867,0.242632,523.0
294,243464,0.0040577333,0.243464,538.0
295,244296,0.0040716,0.244296,523.0
296,245132,0.0040855333,0.245132,479.0
297,245964,0.0040994,0.245964,500.0
298,246796,0.0041132667,0.246796,553.0
299,247632,0.0041272,0.247632,534.0
300,248464,0.0041410667,0.248464,506.0
301,249296,0.004154933,0.249296,492.0
302,250132,0.0041688667,0.250132,521.0
303,250964,0.004182733,0.250964,540.0
304,251796,0.0041966,0.251796,529.0
305,252632,0.004210533,0.252632,517.0
306,253464,0.0042244,0.253464,486.0
307,254300,0.0042383336,0.2543,535.0
308,255132,0.0042522,0.255132,513.0
309,255964,0.0042660665,0.255964,516.0
310,256800,0.00428,0.2568,475.0
311,257632,0.0042938665,0.257632,484.0
312,258464,0.0043077334,0.258464,535.0
313,259300,0.0043216664,0.2593,530.0
314,260132,0.0043355334,0.260132,515.0
315,260964,0.0043494,0.260964,476.0
316,261800,0.0043633333,0.2618,555.0
317,262632,0.0043772,0.262632,550.0
318,263464,0.0043910667,0.263464,524.0
319,264300,0.004405,0.2643,477.0
320,265132,0.0044188667,0.265132,502.0
321,265964,0.004432733,0.265964,550.0
322,266800,0.0044466667,0.2668,533.0
323,267632,0.004460533,0.267632,515.0
324,268464,0.0044744,0.268464,485.0
325,269300,0.004488333,0.2693,534.0
326,270132,0.0045022,0.270132,499.0
327,270964,0.0045160665,0.270964,525.0
328,271800,0.00453,0.2718,492.0
329,272632,0.0045438665,0.272632,501.0
330,273464,0.0045577334,0.273464,522.0
331,274300,0.0045716665,0.2743,531.0
332,275132,0.0045855334,0.275132,529.0
333,275964,0.0045994,0.275964,476.0
334,276800,0.0046133334,0.2768,514.0
335,277632,0.0046272,0.277632,519.0
336,278468,0.0046411334,0.278468,521.0
337,279300,0.004655,0.2793,474.0
338,280132,0.0046688667,0.280132,473.0
339,280968,0.0046828,0.280968,538.0
340,281800,0.0046966667,0.2818,527.0
341,282632,0.004710533,0.282632,511.0
342,283468,0.0047244667,0.283468,483.0
343,284300,0.004738333,0.2843,503.0
344,285132,0.0047522,0.285132,536.0
345,285968,0.004766133,0.285968,529.0
346,286800,0.00478,0.2868,507.0
347,287632,0.0047938665,0.287632,505.0
348,288468,0.0048078,0.288468,545.0
349,289300,0.0048216665,0.2893,544.0
350,290132,0.0048355334,0.290132,516.0
351,290968,0.0048494665,0.290968,495.0
352,291800,0.0048633334,0.2918,495.0
353,292632,0.0048772,0.292632,512.0
354,293468,0.0048911334,0.293468,513.0
355,294300,0.004905,0.2943,473.0
356,295132,0.004918867,0.295132,496.0
357,295968,0.0049328,0.295968,524.0
358,296800,0.004946667,0.2968,531.0
359,297632,0.004960533,0.297632,521.0
360,298468,0.0049744667,0.298468,506.0
361,299300,0.004988333,0.2993,523.0
362,300132,0.0050022,0.300132,519.0
363,300968,0.005016133,0.300968,547.0
364,301800,0.00503,0.3018,522.0
365,302632,0.0050438666,0.302632,487.0
366,303468,0.0050578,0.303468,520.0
367,304300,0.0050716666,0.3043,518.0
368,305132,0.0050855335,0.305132,517.0
369,305968,0.0050994665,0.305968,484.0
370,306800,0.0051133335,0.3068,480.0
371,307636,0.0051272665,0.307636,546.0
372,308468,0.0051411334,0.308468,518.0
373,309300,0.005155,0.3093,501.0
374,310136,0.0051689334,0.310136,493.0
375,310968,0.0051828,0.310968,494.0
376,311800,0.005196667,0.3118,525.0
377,312636,0.0052106,0.312636,525.0
378,313468,0.005224467,0.313468,516.0
379,314300,0.0052383333,0.3143,484.0
380,315136,0.005252267,0.315136,496.0
381,315968,0.005266133,0.315968,512.0
382,316800,0.00528,0.3168,514.0
383,317636,0.005293933,0.317636,540.0
384,318472,0.0053078667,0.318472,481.0
385,319300,0.0053216666,0.3193,506.0
386,320136,0.0053356,0.320136,543.0
387,320968,0.0053494666,0.320968,523.0
388,321800,0.0053633335,0.3218,525.0
389,322636,0.0053772666,0.322636,498.0
390,323468,0.0053911335,0.323468,502.0
391,324300,0.005405,0.3243,524.0
392,325136,0.0054189335,0.325136,524.0
393,325968,0.0054328,0.325968,513.0
394,326800,0.005446667,0.3268,509.0
395,327636,0.0054606,0.327636,490.0
396,328468,0.005474467,0.328468,505.0
397,329300,0.0054883333,0.3293,542.0
398,330136,0.005502267,0.330136,485.0
399,330968,0.0055161333,0.330968,542.0
400,331800,0.00553,0.3318,496.0
401,332636,0.0055439333,0.332636,502.0
402,333468,0.0055578,0.333468,521.0
403,334304,0.005571733,0.334304,524.0
404,335136,0.0055856,0.335136,542.0
405,335968,0.0055994666,0.335968,492.0
406,336804,0.0056134,0.336804,510.0
407,337636,0.0056272666,0.337636,530.0
408,338468,0.0056411335,0.338468,532.0
409,339304,0.0056550666,0.339304,509.0
410,340136,0.0056689335,0.340136,486.0
411,340968,0.0056828,0.340968,505.0
412,341804,0.0056967335,0.341804,500.0
413,342636,0.0057106,0.342636,528.0
414,343468,0.005724467,0.343468,492.0
415,344304,0.0057384,0.344304,542.0
416,345136,0.005752267,0.345136,497.0
417,345968,0.0057661333,0.345968,484.0
418,346804,0.005780067,0.346804,502.0
419,347636,0.0057939333,0.347636,499.0
420,348468,0.0058078,0.348468,519.0
421,349304,0.0058217333,0.349304,475.0
422,350136,0.0058356,0.350136,486.0
423,350968,0.0058494667,0.350968,511.0
424,351804,0.0058634,0.351804,550.0
425,352636,0.0058772666,0.352636,539.0
426,353468,0.0058911336,0.353468,509.0
427,354304,0.0059050666,0.354304,493.0
428,355136,0.0059189335,0.355136,539.0
429,355968,0.0059328,0.355968,555.0
430,356804,0.0059467335,0.356804,527.0
431,357636,0.0059606,0.357636,519.0
432,358472,0.0059745335,0.358472,523.0
433,359304,0.0059884,0.359304,540.0
434,360136,0.006002267,0.360136,524.0
435,360972,0.0060162,0.360972,481.0
436,361804,0.006030067,0.361804,509.0
437,362636,0.0060439333,0.362636,482.0
438,363472,0.006057867,0.363472,482.0
439,364304,0.0060717333,0.364304,501.0
440,365136,0.0060856,0.365136,487.0
441,365972,0.0060995333,0.365972,512.0
442,366804,0.0061134,0.366804,503.0
443,367636,0.0061272667,0.367636,489.0
444,368472,0.0061412,0.368472,536.0
445,369304,0.0061550667,0.369304,521.0
446,370136,0.006168933,0.370136,569.0
447,370972,0.0061828666,0.370972,502.0
448,371804,0.0061967336,0.371804,463.0
449,372636,0.0062106,0.372636,535.0
450,373472,0.0062245335,0.373472,503.0
451,374304,0.0062384,0.374304,525.0
452,375136,0.0062522665,0.375136,470.0
453,375972,0.0062662,0.375972,488.0
454,376804,0.0062800664,0.376804,548.0
455,377636,0.0062939334,0.377636,495.0
456,378472,0.006307867,0.378472,521.0
457,379304,0.0063217334,0.379304,506.0
458,380136,0.0063356,0.380136,534.0
459,380972,0.0063495333,0.380972,536.0
460,381804,0.0063634,0.381804,501.0
461,382636,0.0063772667,0.382636,521.0
462,383472,0.0063912,0.383472,503.0
463,384304,0.0064050667,0.384304,507.0
464,385140,0.006419,0.38514,505.0
465,385972,0.0064328667,0.385972,469.0
466,386804,0.006446733,0.386804,527.0
467,387640,0.0064606667,0.38764,492.0
468,388472,0.006474533,0.388472,497.0
469,389304,0.0064884,0.389304,530.0
470,390140,0.0065023336,0.39014,551.0
471,390972,0.0065162,0.390972,552.0
472,391804,0.0065300665,0.391804,495.0
473,392640,0.006544,0.39264,507.0
474,393472,0.0065578665,0.393472,536.0
475,394304,0.0065717334,0.394304,543.0
476,395140,0.0065856664,0.39514,519.0
477,395972,0.0065995334,0.395972,508.0
478,396804,0.0066134,0.396804,513.0
479,397640,0.0066273334,0.39764,510.0
480,398472,0.0066412,0.398472,514.0
481,399304,0.0066550667,0.399304,522.0
482,400140,0.006669,0.40014,514.0
483,400972,0.0066828667,0.400972,489.0
484,401804,0.006696733,0.401804,497.0
485,402640,0.0067106667,0.40264,530.0
486,403472,0.006724533,0.403472,514.0
487,404304,0.0067384,0.404304,520.0
488,405140,0.006752333,0.40514,515.0
489,405972,0.0067662,0.405972,512.0
490,406804,0.0067800665,0.406804,526.0
491,407640,0.006794,0.40764,493.0
492,408472,0.0068078665,0.408472,501.0
493,409304,0.0068217334,0.409304,506.0
494,410140,0.0068356665,0.41014,498.0
495,410972,0.0068495334,0.410972,519.0
496,411804,0.0068634,0.411804,528.0
497,412640,0.0068773334,0.41264,528.0
498,413472,0.0068912,0.413472,508.0
499,414308,0.0069051334,0.414308,522.0
500,415140,0.006919,0.41514,522.0
501,415972,0.0069328668,0.415972,506.0
502,416808,0.0069468,0.416808,513.0
503,417640,0.0069606667,0.41764,498.0
504,418472,0.006974533,0.418472,499.0
505,419308,0.0069884667,0.419308,491.0
506,420140,0.007002333,0.42014,498.0
507,420972,0.0070162,0.420972,516.0
508,421808,0.007030133,0.421808,510.0
509,422640,0.007044,0.42264,508.0
510,423472,0.0070578665,0.423472,523.0
511,424308,0.0070718,0.424308,521.0
512,425140,0.0070856665,0.42514,514.0
513,425972,0.0070995335,0.425972,501.0
514,426808,0.0071134665,0.426808,519.0
515,427640,0.0071273334,0.42764,521.0
516,428472,0.0071412,0.428472,512.0
517,429308,0.0071551334,0.429308,519.0
518,430140,0.007169,0.43014,505.0
519,430972,0.007182867,0.430972,499.0
520,431808,0.0071968,0.431808,500.0
521,432640,0.007210667,0.43264,532.0
522,433472,0.0072245332,0.433472,531.0
523,434308,0.0072384668,0.434308,516.0
524,435140,0.007252333,0.43514,528.0
525,435972,0.0072662,0.435972,538.0
526,436808,0.007280133,0.436808,524.0
527,437640,0.007294,0.43764,518.0
528,438476,0.007307933,0.438476,514.0
529,439308,0.0073218,0.439308,503.0
530,440140,0.0073356666,0.44014,503.0
531,440976,0.0073496,0.440976,498.0
532,441808,0.0073634665,0.441808,497.0
533,442640,0.0073773335,0.44264,496.0
534,443476,0.0073912665,0.443476,505.0
535,444308,0.0074051335,0.444308,513.0
536,445140,0.007419,0.44514,525.0
537,445976,0.0074329334,0.445976,527.0
538,446808,0.0074468,0.446808,502.0
539,447640,0.007460667,0.44764,509.0
540,448476,0.0074746,0.448476,519.0
541,449308,0.007488467,0.449308,519.0
542,450140,0.0075023333,0.45014,514.0
543,450976,0.007516267,0.450976,523.0
544,451808,0.0075301332,0.451808,532.0
545,452640,0.007544,0.45264,514.0
546,453476,0.007557933,0.453476,499.0
547,454308,0.0075718,0.454308,500.0
548,455140,0.0075856666,0.45514,518.0
549,455976,0.0075996,0.455976,522.0
550,456808,0.0076134666,0.456808,526.0
551,457640,0.0076273335,0.45764,526.0
552,458476,0.0076412666,0.458476,515.0
553,459308,0.0076551335,0.459308,504.0
554,460140,0.007669,0.46014,522.0
555,460976,0.0076829335,0.460976,523.0
556,461808,0.0076968,0.461808,505.0
557,462640,0.007710667,0.46264,502.0
558,463476,0.0077246,0.463476,520.0
559,464308,0.007738467,0.464308,520.0
560,465140,0.0077523333,0.46514,498.0
561,465976,0.007766267,0.465976,502.0
562,466808,0.0077801333,0.466808,517.0
563,467644,0.007794067,0.467644,503.0
564,468476,0.0078079333,0.468476,521.0
565,469308,0.0078218,0.469308,517.0
566,470144,0.007835734,0.470144,530.0
567,470976,0.0078496,0.470976,512.0
568,471808,0.007863467,0.471808,522.0
569,472644,0.0078774,0.472644,529.0
570,473476,0.007891267,0.473476,512.0
571,474308,0.007905133,0.474308,517.0
572,475144,0.007919067,0.475144,505.0
573,475976,0.007932933,0.475976,506.0
574,476808,0.0079468,0.476808,487.0
575,477644,0.007960733,0.477644,486.0
576,478476,0.0079746,0.478476,507.0
577,479308,0.007988467,0.479308,500.0
578,480144,0.0080024,0.480144,513.0
579,480976,0.008016267,0.480976,519.0
580,481808,0.008030133,0.481808,543.0
581,482644,0.008044067,0.482644,513.0
582,483476,0.008057933,0.483476,528.0
583,484308,0.0080718,0.484308,522.0
584,485144,0.008085733,0.485144,510.0
585,485976,0.0080996,0.485976,510.0
586,486808,0.008113466,0.486808,520.0
587,487644,0.0081274,0.487644,508.0
588,488476,0.008141267,0.488476,499.0
589,489308,0.008155134,0.489308,500.0
590,490144,0.008169067,0.490144,519.0
591,490976,0.008182934,0.490976,513.0
592,491812,0.008196867,0.491812,511.0
593,492644,0.0082107335,0.492644,522.0
594,493476,0.0082246,0.493476,500.0
595,494312,0.0082385335,0.494312,523.0
596,495144,0.0082524,0.495144,510.0
597,495976,0.008266266,0.495976,527.0
598,496812,0.0082802,0.496812,523.0
599,497644,0.008294066,0.497644,512.0
600,498476,0.008307933,0.498476,514.0
601,499312,0.008321866,0.499312,492.0
602,500144,0.008335734,0.500144,510.0
603,500976,0.0083496,0.500976,510.0
604,501812,0.008363534,0.501812,499.0
605,502644,0.0083774,0.502644,546.0
606,503476,0.008391267,0.503476,512.0
607,504312,0.0084052,0.504312,516.0
608,505144,0.008419067,0.505144,519.0
609,505976,0.008432933,0.505976,525.0
610,506812,0.008446867,0.506812,520.0
611,507644,0.008460733,0.507644,503.0
612,508476,0.0084746,0.508476,513.0
613,509312,0.008488533,0.509312,498.0
614,510144,0.0085024,0.510144,494.0
615,510976,0.008516267,0.510976,506.0
616,511812,0.0085302,0.511812,505.0
617,512644,0.008544067,0.512644,517.0
618,513476,0.008557933,0.513476,503.0
619,514312,0.008571867,0.514312,518.0
620,515144,0.008585733,0.515144,517.0
621,515976,0.0085996,0.515976,513.0
622,516812,0.008613533,0.516812,520.0
623,517644,0.0086274,0.517644,536.0
624,518476,0.008641266,0.518476,521.0
625,519312,0.0086552,0.519312,499.0
626,520144,0.008669066,0.520144,528.0
627,520980,0.008683,0.52098,527.0
628,521812,0.008696866,0.521812,492.0
629,522644,0.008710734,0.522644,514.0
630,523480,0.008724667,0.52348,501.0
631,524312,0.008738534,0.524312,524.0
632,525144,0.0087524,0.525144,503.0
633,525980,0.008766334,0.52598,515.0
634,526812,0.0087802,0.526812,523.0
635,527644,0.0087940665,0.527644,524.0
636,528480,0.008808,0.52848,538.0
637,529312,0.0088218665,0.529312,519.0
638,530144,0.008835733,0.530144,511.0
639,530980,0.008849666,0.53098,485.0
640,531812,0.008863533,0.531812,491.0
641,532644,0.0088774,0.532644,513.0
642,533480,0.008891333,0.53348,492.0
643,534312,0.0089052,0.534312,514.0
644,535144,0.008919067,0.535144,516.0
645,535980,0.008933,0.53598,513.0
646,536812,0.008946867,0.536812,506.0
647,537644,0.008960733,0.537644,526.0
648,538480,0.008974667,0.53848,522.0
649,539312,0.008988533,0.539312,510.0
650,540144,0.0090024,0.540144,521.0
651,540980,0.009016333,0.54098,531.0
652,541812,0.0090302,0.541812,520.0
653,542644,0.009044067,0.542644,514.0
654,543480,0.009058,0.54348,518.0
655,544312,0.009071867,0.544312,506.0
656,545144,0.009085733,0.545144,498.0
657,545980,0.009099667,0.54598,482.0
658,546812,0.009113533,0.546812,510.0
659,547648,0.009127467,0.547648,502.0
660,548480,0.009141333,0.54848,515.0
661,549312,0.0091552,0.549312,511.0
662,550148,0.009169133,0.550148,518.0
663,550980,0.009183,0.55098,525.0
664,551812,0.009196866,0.551812,522.0
665,552648,0.0092108,0.552648,528.0
666,553480,0.009224666,0.55348,514.0
667,554312,0.009238534,0.554312,509.0
668,555148,0.009252466,0.555148,506.0
669,555980,0.009266334,0.55598,512.0
670,556812,0.0092802,0.556812,508.0
671,557648,0.009294134,0.557648,482.0
672,558480,0.009308,0.55848,508.0
673,559312,0.009321867,0.559312,515.0
674,560148,0.0093358,0.560148,510.0
675,560980,0.009349667,0.56098,509.0
676,561812,0.009363533,0.561812,494.0
677,562648,0.0093774665,0.562648,502.0
678,563480,0.009391333,0.56348,529.0
679,564312,0.0094052,0.564312,534.0
680,565148,0.009419133,0.565148,533.0
681,565980,0.009433,0.56598,491.0
682,566812,0.009446867,0.566812,483.0
683,567648,0.0094608,0.567648,522.0
684,568480,0.009474667,0.56848,537.0
685,569312,0.009488533,0.569312,498.0
686,570148,0.009502467,0.570148,483.0
687,570980,0.009516333,0.57098,473.0
688,571812,0.0095302,0.571812,510.0
689,572648,0.009544133,0.572648,540.0
690,573480,0.009558,0.57348,524.0
691,574316,0.009571933,0.574316,532.0
692,575148,0.0095858,0.575148,489.0
693,575980,0.009599667,0.57598,508.0
694,576816,0.0096136,0.576816,518.0
695,577648,0.009627467,0.577648,516.0
696,578480,0.0096413335,0.57848,530.0
697,579316,0.009655267,0.579316,464.0
698,580148,0.009669133,0.580148,536.0
699,580980,0.009683,0.58098,512.0
700,581816,0.009696933,0.581816,500.0
701,582648,0.0097108,0.582648,546.0
702,583480,0.009724666,0.58348,464.0
703,584316,0.0097386,0.584316,528.0
704,585148,0.009752466,0.585148,530.0
705,585980,0.009766334,0.58598,506.0
706,586816,0.009780266,0.586816,554.0
707,587648,0.009794134,0.587648,496.0
708,588480,0.009808,0.58848,506.0
709,589316,0.009821934,0.589316,536.0
710,590148,0.0098358,0.590148,525.0
711,590980,0.009849667,0.59098,530.0
712,591816,0.0098636,0.591816,488.0
713,592648,0.009877467,0.592648,501.0
714,593480,0.009891333,0.59348,496.0
715,594316,0.009905267,0.594316,511.0
716,595148,0.009919133,0.595148,533.0
717,595980,0.009933,0.59598,496.0
718,596816,0.009946933,0.596816,508.0
719,597648,0.0099608,0.597648,532.0
720,598480,0.009974667,0.59848,543.0
721,599316,0.0099886,0.599316,530.0
722,600148,0.010002467,0.600148,491.0
723,600984,0.0100164,0.600984,489.0
724,601816,0.010030267,0.601816,511.0
725,602648,0.010044133,0.602648,519.0
726,603484,0.010058067,0.603484,508.0
727,604316,0.010071933,0.604316,497.0
728,605148,0.0100858,0.605148,505.0
729,605984,0.010099733,0.605984,523.0
730,606816,0.0101136,0.606816,527.0
731,607648,0.010127467,0.607648,520.0
732,608484,0.0101414,0.608484,526.0
733,609316,0.010155267,0.609316,483.0
734,610148,0.010169134,0.610148,526.0
735,610984,0.010183067,0.610984,514.0
736,611816,0.0101969335,0.611816,510.0
737,612648,0.0102108,0.612648,500.0
738,613484,0.0102247335,0.613484,459.0
739,614316,0.0102386,0.614316,507.0
740,615148,0.010252466,0.615148,528.0
741,615984,0.0102664,0.615984,519.0
742,616816,0.010280266,0.616816,517.0
743,617648,0.010294134,0.617648,471.0
744,618484,0.010308066,0.618484,534.0
745,619316,0.010321934,0.619316,516.0
746,620148,0.0103358,0.620148,528.0
747,620984,0.010349734,0.620984,540.0
748,621816,0.0103636,0.621816,481.0
749,622648,0.010377467,0.622648,513.0
750,623484,0.0103914,0.623484,506.0
751,624316,0.010405267,0.624316,512.0
752,625148,0.010419133,0.625148,509.0
753,625984,0.010433067,0.625984,487.0
754,626816,0.010446933,0.626816,511.0
755,627652,0.010460867,0.627652,517.0
756,628484,0.010474733,0.628484,549.0
757,629316,0.0104886,0.629316,496.0
758,630152,0.010502533,0.630152,514.0
759,630984,0.0105164,0.630984,493.0
760,631816,0.010530267,0.631816,514.0
761,632652,0.0105442,0.632652,520.0
762,633484,0.010558067,0.633484,494.0
763,634316,0.010571933,0.634316,554.0
764,635152,0.010585867,0.635152,482.0
765,635984,0.010599733,0.635984,538.0
766,636816,0.0106136,0.636816,510.0
767,637652,0.010627533,0.637652,483.0
768,638484,0.0106414,0.638484,523.0
769,639316,0.010655266,0.639316,471.0
770,640152,0.0106692,0.640152,563.0
771,640984,0.010683066,0.640984,533.0
772,641816,0.010696934,0.641816,516.0
773,642652,0.010710867,0.642652,533.0
774,643484,0.010724734,0.643484,480.0
775,644316,0.0107386,0.644316,496.0
776,645152,0.010752534,0.645152,493.0
777,645984,0.0107664,0.645984,500.0
778,646816,0.0107802665,0.646816,506.0
779,647652,0.0107942,0.647652,501.0
780,648484,0.010808066,0.648484,516.0
781,649316,0.010821933,0.649316,529.0
782,650152,0.010835866,0.650152,526.0
783,650984,0.010849733,0.650984,501.0
784,651816,0.0108636,0.651816,514.0
785,652652,0.010877533,0.652652,471.0
786,653484,0.0108914,0.653484,518.0
787,654320,0.010905334,0.65432,521.0
788,655152,0.0109192,0.655152,531.0
789,655984,0.010933067,0.655984,559.0
790,656820,0.010947,0.65682,510.0
791,657652,0.010960867,0.657652,542.0
792,658484,0.010974733,0.658484,507.0
793,659320,0.010988667,0.65932,525.0
794,660152,0.011002533,0.660152,534.0
795,660984,0.0110164,0.660984,475.0
796,661820,0.011030333,0.66182,521.0
797,662652,0.0110442,0.662652,492.0
798,663484,0.011058067,0.663484,506.0
799,664320,0.011072,0.66432,497.0
800,665152,0.011085867,0.665152,505.0
801,665984,0.011099733,0.665984,537.0
802,666820,0.011113667,0.66682,512.0
803,667656,0.0111276,0.667656,524.0
804,668484,0.0111414,0.668484,528.0
805,669320,0.011155333,0.66932,503.0
806,670152,0.0111692,0.670152,506.0
807,670984,0.011183066,0.670984,505.0
808,671820,0.011197,0.67182,504.0
809,672652,0.011210866,0.672652,523.0
810,673484,0.011224734,0.673484,512.0
811,674320,0.011238666,0.67432,541.0
812,675152,0.011252534,0.675152,521.0
813,675984,0.0112664,0.675984,491.0
814,676820,0.011280334,0.67682,532.0
815,677652,0.0112942,0.677652,478.0
816,678488,0.011308134,0.678488,492.0
817,679320,0.011322,0.67932,520.0
818,680152,0.0113358665,0.680152,533.0
819,680988,0.0113498,0.680988,520.0
820,681820,0.0113636665,0.68182,519.0
821,682652,0.011377533,0.682652,493.0
822,683488,0.0113914665,0.683488,467.0
823,684320,0.011405333,0.68432,478.0
824,685152,0.0114192,0.685152,510.0
825,685988,0.011433133,0.685988,550.0
826,686820,0.011447,0.68682,564.0
827,687652,0.011460867,0.687652,558.0
828,688488,0.0114748,0.688488,558.0
829,689320,0.011488667,0.68932,516.0
830,690152,0.011502533,0.690152,527.0
831,690988,0.011516467,0.690988,514.0
832,691820,0.011530333,0.69182,481.0
833,692652,0.0115442,0.692652,454.0
834,693488,0.011558133,0.693488,478.0
835,694320,0.011572,0.69432,491.0
836,695152,0.011585867,0.695152,520.0
837,695988,0.0115998,0.695988,564.0
838,696820,0.011613667,0.69682,469.0
839,697652,0.0116275335,0.697652,530.0
840,698488,0.011641467,0.698488,543.0
841,699320,0.011655333,0.69932,546.0
842,700152,0.0116692,0.700152,502.0
843,700988,0.011683133,0.700988,504.0
844,701820,0.011697,0.70182,480.0
845,702652,0.011710866,0.702652,487.0
846,703488,0.0117248,0.703488,537.0
847,704320,0.011738666,0.70432,464.0
848,705156,0.0117526,0.705156,517.0
849,705988,0.011766466,0.705988,554.0
850,706820,0.011780334,0.70682,544.0
851,707656,0.011794266,0.707656,500.0
852,708488,0.011808134,0.708488,499.0
853,709320,0.011822,0.70932,519.0
854,710156,0.011835934,0.710156,529.0
855,710988,0.0118498,0.710988,558.0
856,711820,0.011863667,0.71182,523.0
857,712656,0.0118776,0.712656,485.0
858,713488,0.011891467,0.713488,473.0
859,714320,0.011905333,0.71432,497.0
860,715156,0.011919267,0.715156,507.0
861,715988,0.011933133,0.715988,541.0
862,716820,0.011947,0.71682,541.0
863,717656,0.011960933,0.717656,523.0
864,718488,0.0119748,0.718488,533.0
865,719320,0.011988667,0.71932,504.0
866,720156,0.0120026,0.720156,502.0
867,720988,0.012016467,0.720988,462.0
868,721820,0.012030333,0.72182,471.0
869,722656,0.012044267,0.722656,470.0
870,723488,0.012058133,0.723488,498.0
871,724320,0.012072,0.72432,493.0
872,725156,0.012085933,0.725156,505.0
873,725988,0.0120998,0.725988,578.0
874,726820,0.012113667,0.72682,566.0
875,727656,0.0121276,0.727656,569.0
876,728488,0.012141467,0.728488,559.0
877,729320,0.0121553335,0.72932,536.0
878,730156,0.012169267,0.730156,517.0
879,730988,0.0121831335,0.730988,482.0
880,731824,0.012197067,0.731824,462.0
881,732656,0.0122109335,0.732656,444.0
882,733488,0.0122248,0.733488,479.0
883,734324,0.0122387335,0.734324,479.0
884,735156,0.0122526,0.735156,495.0
885,735988,0.012266466,0.735988,535.0
886,736824,0.0122804,0.736824,525.0
887,737656,0.012294266,0.737656,547.0
888,738488,0.012308134,0.738488,552.0
889,739324,0.012322066,0.739324,551.0
890,740156,0.012335934,0.740156,535.0
891,740988,0.0123498,0.740988,527.0
892,741824,0.012363734,0.741824,550.0
893,742656,0.0123776,0.742656,524.0
894,743488,0.012391467,0.743488,498.0
895,744324,0.0124054,0.744324,496.0
896,745156,0.012419267,0.745156,506.0
897,745988,0.012433133,0.745988,457.0
898,746824,0.012447067,0.746824,476.0
899,747656,0.012460933,0.747656,495.0
900,748488,0.0124748,0.748488,492.0
901,749324,0.012488733,0.749324,485.0
902,750156,0.0125026,0.750156,505.0
903,750988,0.012516467,0.750988,540.0
904,751824,0.0125304,0.751824,574.0
905,752656,0.012544267,0.752656,548.0
906,753488,0.012558133,0.753488,504.0
907,754324,0.012572067,0.754324,512.0
908,755156,0.012585933,0.755156,497.0
909,755988,0.0125998,0.755988,503.0
910,756824,0.012613733,0.756824,525.0
911,757656,0.0126276,0.757656,460.0
912,758488,0.012641466,0.758488,483.0
913,759324,0.0126554,0.759324,518.0
914,760156,0.012669266,0.760156,515.0
915,760992,0.0126832,0.760992,480.0
916,761824,0.012697067,0.761824,469.0
917,762656,0.012710934,0.762656,491.0
918,763492,0.012724867,0.763492,524.0
919,764324,0.012738734,0.764324,556.0
920,765156,0.0127526,0.765156,515.0
921,765992,0.0127665335,0.765992,517.0
922,766824,0.0127804,0.766824,514.0
923,767656,0.012794266,0.767656,536.0
924,768492,0.0128082,0.768492,578.0
925,769324,0.012822066,0.769324,537.0
926,770156,0.012835933,0.770156,537.0
927,770992,0.012849866,0.770992,530.0
928,771824,0.012863733,0.771824,552.0
929,772656,0.0128776,0.772656,555.0
930,773492,0.012891534,0.773492,524.0
931,774324,0.0129054,0.774324,523.0
932,775156,0.012919267,0.775156,517.0
933,775992,0.0129332,0.775992,499.0
934,776824,0.012947067,0.776824,458.0
935,777656,0.012960933,0.777656,508.0
936,778492,0.012974867,0.778492,498.0
937,779324,0.012988733,0.779324,459.0
938,780156,0.0130026,0.780156,473.0
939,780992,0.013016533,0.780992,489.0
940,781824,0.0130304,0.781824,492.0
941,782656,0.013044267,0.782656,521.0
942,783492,0.0130582,0.783492,525.0
943,784324,0.013072067,0.784324,499.0
944,785160,0.013086,0.78516,514.0
945,785992,0.013099867,0.785992,519.0
946,786824,0.013113733,0.786824,530.0
947,787660,0.013127667,0.78766,553.0
948,788492,0.013141533,0.788492,503.0
949,789324,0.0131554,0.789324,499.0
950,790160,0.013169333,0.79016,508.0
951,790992,0.0131832,0.790992,510.0
952,791824,0.013197066,0.791824,500.0
953,792660,0.013211,0.79266,495.0
954,793492,0.013224866,0.793492,500.0
955,794324,0.013238734,0.794324,499.0
956,795160,0.013252666,0.79516,550.0
957,795992,0.013266534,0.795992,479.0
958,796824,0.0132804,0.796824,520.0
959,797660,0.013294334,0.79766,512.0
960,798492,0.0133082,0.798492,497.0
961,799324,0.0133220665,0.799324,509.0
962,800160,0.013336,0.80016,509.0
963,800992,0.0133498665,0.800992,542.0
964,801824,0.013363733,0.801824,532.0
965,802660,0.0133776665,0.80266,536.0
966,803492,0.013391533,0.803492,533.0
967,804324,0.0134054,0.804324,531.0
968,805160,0.013419333,0.80516,542.0
969,805992,0.0134332,0.805992,553.0
970,806824,0.013447067,0.806824,547.0
971,807660,0.013461,0.80766,519.0
972,808492,0.013474867,0.808492,518.0
973,809324,0.013488733,0.809324,503.0
974,810160,0.013502667,0.81016,499.0
975,810992,0.013516533,0.810992,493.0
976,811824,0.0135304,0.811824,484.0
977,812660,0.013544333,0.81266,457.0
978,813492,0.0135582,0.813492,481.0
979,814328,0.013572133,0.814328,505.0
980,815160,0.013586,0.81516,487.0
981,815992,0.013599867,0.815992,473.0
982,816828,0.0136138,0.816828,496.0
983,817660,0.013627667,0.81766,520.0
984,818492,0.013641533,0.818492,496.0
985,819328,0.013655467,0.819328,535.0
986,820160,0.013669333,0.82016,489.0
987,820992,0.0136832,0.820992,484.0
988,821828,0.013697133,0.821828,561.0
989,822660,0.013711,0.82266,488.0
990,823492,0.013724866,0.823492,510.0
991,824328,0.0137388,0.824328,472.0
992,825160,0.013752666,0.82516,528.0
993,825992,0.013766534,0.825992,565.0
994,826828,0.013780466,0.826828,492.0
995,827660,0.013794334,0.82766,495.0
996,828492,0.0138082,0.828492,523.0
997,829328,0.013822134,0.829328,581.0
998,830160,0.013836,0.83016,547.0
999,830992,0.013849867,0.830992,525.0
1000,831828,0.0138638,0.831828,540.0
1001,832660,0.013877667,0.83266,574.0
1002,833492,0.013891533,0.833492,562.0
1003,834328,0.0139054665,0.834328,479.0
1004,835160,0.013919333,0.83516,545.0
1005,835992,0.0139332,0.835992,549.0
1006,836828,0.013947133,0.836828,502.0
1007,837660,0.013961,0.83766,474.0
1008,838496,0.013974933,0.838496,510.0
1009,839328,0.0139888,0.839328,536.0
1010,840160,0.014002667,0.84016,495.0
1011,840996,0.0140166,0.840996,490.0
1012,841828,0.014030467,0.841828,480.0
1013,842660,0.014044333,0.84266,483.0
1014,843496,0.014058267,0.843496,473.0
1015,844328,0.014072133,0.844328,440.0
1016,845160,0.014086,0.84516,515.0
1017,845996,0.014099933,0.845996,463.0
1018,846828,0.0141138,0.846828,459.0
1019,847660,0.014127667,0.84766,492.0
1020,848496,0.0141416,0.848496,521.0
1021,849328,0.014155467,0.849328,545.0
1022,850160,0.0141693335,0.85016,457.0
1023,850996,0.014183267,0.850996,561.0
1024,851828,0.0141971335,0.851828,561.0
1025,852660,0.014211,0.85266,518.0
1026,853496,0.014224933,0.853496,561.0
1027,854328,0.0142388,0.854328,566.0
1028,855160,0.014252666,0.85516,579.0
1029,855996,0.0142666,0.855996,499.0
1030,856828,0.014280466,0.856828,526.0
1031,857660,0.014294334,0.85766,516.0
1032,858496,0.014308266,0.858496,494.0
1033,859328,0.014322134,0.859328,521.0
1034,860168,0.014336133,0.860168,518.0
1035,860996,0.014349934,0.860996,507.0
1036,861828,0.0143638,0.861828,479.0
1037,862660,0.014377667,0.86266,507.0
1038,863496,0.0143916,0.863496,490.0
1039,864328,0.014405467,0.864328,521.0
1040,865164,0.0144194,0.865164,516.0
1041,865996,0.014433267,0.865996,487.0
1042,866828,0.014447133,0.866828,485.0
1043,867664,0.014461067,0.867664,479.0
1044,868496,0.014474933,0.868496,512.0
1045,869328,0.0144888,0.869328,526.0
1046,870164,0.014502733,0.870164,526.0
1047,870996,0.0145166,0.870996,549.0
1048,871828,0.014530467,0.871828,506.0
1049,872664,0.0145444,0.872664,511.0
1050,873496,0.014558267,0.873496,564.0
1051,874328,0.014572133,0.874328,517.0
1052,875164,0.014586067,0.875164,544.0
1053,875996,0.014599933,0.875996,547.0
1054,876828,0.0146138,0.876828,528.0
1055,877664,0.014627733,0.877664,514.0
1056,878496,0.0146416,0.878496,522.0
1057,879328,0.014655467,0.879328,490.0
1058,880164,0.0146694,0.880164,506.0
1059,880996,0.014683267,0.880996,465.0
1060,881828,0.014697134,0.881828,486.0
1061,882664,0.014711067,0.882664,510.0
1062,883496,0.014724934,0.883496,469.0
1063,884328,0.0147388,0.884328,502.0
1064,885164,0.0147527335,0.885164,522.0
1065,885996,0.0147666,0.885996,494.0
1066,886828,0.014780466,0.886828,534.0
1067,887664,0.0147944,0.887664,526.0
1068,888496,0.014808266,0.888496,528.0
1069,889328,0.014822133,0.889328,528.0
1070,890164,0.014836066,0.890164,516.0
1071,890996,0.014849934,0.890996,515.0
1072,891832,0.014863866,0.891832,492.0
1073,892664,0.014877734,0.892664,507.0
1074,893496,0.0148916,0.893496,515.0
1075,894332,0.014905534,0.894332,499.0
1076,895164,0.0149194,0.895164,517.0
1077,895996,0.014933267,0.895996,547.0
1078,896832,0.0149472,0.896832,551.0
1079,897664,0.014961067,0.897664,531.0
1080,898496,0.014974933,0.898496,533.0
1081,899332,0.014988867,0.899332,512.0
1082,900164,0.015002733,0.900164,531.0
1083,900996,0.0150166,0.900996,534.0
1084,901832,0.015030533,0.901832,533.0
1085,902664,0.0150444,0.902664,516.0
1086,903496,0.015058267,0.903496,514.0
1087,904332,0.0150722,0.904332,480.0
1088,905164,0.015086067,0.905164,488.0
1089,905996,0.015099933,0.905996,486.0
1090,906832,0.015113867,0.906832,480.0
1091,907664,0.015127733,0.907664,539.0
1092,908496,0.0151416,0.908496,523.0
1093,909332,0.015155533,0.909332,498.0
1094,910164,0.0151694,0.910164,510.0
1095,910996,0.015183266,0.910996,538.0
1096,911832,0.0151972,0.911832,474.0
1097,912664,0.015211066,0.912664,457.0
1098,913496,0.015224934,0.913496,477.0
1099,914332,0.015238866,0.914332,466.0
1100,915164,0.015252734,0.915164,501.0
1101,915996,0.0152666,0.915996,496.0
1102,916832,0.015280534,0.916832,520.0
1103,917664,0.0152944,0.917664,500.0
1104,918496,0.0153082665,0.918496,503.0
1105,919332,0.0153222,0.919332,557.0
1106,920164,0.0153360665,0.920164,514.0
1107,921000,0.01535,0.921,529.0
1108,921832,0.015363866,0.921832,583.0
1109,922664,0.015377733,0.922664,572.0
1110,923500,0.015391666,0.9235,530.0
1111,924332,0.015405533,0.924332,517.0
1112,925164,0.0154194,0.925164,536.0
1113,926000,0.015433333,0.926,511.0
1114,926832,0.0154472,0.926832,504.0
1115,927664,0.015461067,0.927664,501.0
1116,928500,0.015475,0.9285,427.0
1117,929332,0.015488867,0.929332,437.0
1118,930164,0.015502733,0.930164,500.0
1119,931000,0.015516667,0.931,521.0
1120,931832,0.015530533,0.931832,500.0
1121,932664,0.0155444,0.932664,474.0
1122,933500,0.015558333,0.9335,513.0
1123,934332,0.0155722,0.934332,528.0
1124,935164,0.015586067,0.935164,504.0
1125,936000,0.0156,0.936,522.0
1126,936832,0.015613867,0.936832,491.0
1127,937664,0.015627733,0.937664,499.0
1128,938500,0.015641667,0.9385,527.0
1129,939332,0.015655532,0.939332,526.0
1130,940164,0.0156694,0.940164,503.0
1131,941000,0.015683332,0.941,494.0
1132,941832,0.0156972,0.941832,505.0
1133,942664,0.015711067,0.942664,520.0
1134,943500,0.015725,0.9435,554.0
1135,944332,0.015738867,0.944332,552.0
1136,945164,0.015752733,0.945164,540.0
1137,946000,0.015766667,0.946,522.0
1138,946832,0.015780533,0.946832,531.0
1139,947668,0.015794467,0.947668,533.0
1140,948500,0.015808333,0.9485,524.0
1141,949332,0.0158222,0.949332,505.0
1142,950168,0.015836133,0.950168,470.0
1143,951000,0.01585,0.951,511.0
1144,951832,0.015863867,0.951832,529.0
1145,952668,0.0158778,0.952668,517.0
1146,953500,0.015891667,0.9535,507.0
1147,954332,0.015905533,0.954332,473.0
1148,955168,0.015919467,0.955168,491.0
1149,956000,0.015933333,0.956,566.0
1150,956832,0.0159472,0.956832,534.0
1151,957668,0.015961133,0.957668,519.0
1152,958500,0.015975,0.9585,480.0
1153,959332,0.015988866,0.959332,500.0
1154,960168,0.0160028,0.960168,511.0
1155,961000,0.016016666,0.961,506.0
1156,961832,0.016030533,0.961832,517.0
1157,962668,0.016044466,0.962668,470.0
1158,963500,0.016058333,0.9635,459.0
1159,964332,0.0160722,0.964332,491.0
1160,965168,0.016086133,0.965168,512.0
1161,966000,0.0161,0.966,495.0
1162,966832,0.016113866,0.966832,507.0
1163,967668,0.0161278,0.967668,553.0
1164,968500,0.016141666,0.9685,548.0
1165,969332,0.016155533,0.969332,544.0
1166,970168,0.016169466,0.970168,554.0
1167,971000,0.016183333,0.971,516.0
1168,971836,0.016197266,0.971836,511.0
1169,972668,0.016211133,0.972668,547.0
1170,973500,0.016225,0.9735,532.0
1171,974336,0.016238933,0.974336,511.0
1172,975168,0.0162528,0.975168,488.0
1173,976000,0.016266666,0.976,492.0
1174,976836,0.0162806,0.976836,501.0
1175,977668,0.016294466,0.977668,502.0
1176,978500,0.016308334,0.9785,527.0
1177,979336,0.016322266,0.979336,514.0
1178,980168,0.016336134,0.980168,489.0
1179,981000,0.01635,0.981,481.0
1180,981836,0.016363934,0.981836,501.0
1181,982668,0.0163778,0.982668,505.0
1182,983500,0.016391667,0.9835,489.0
1183,984336,0.0164056,0.984336,457.0
1184,985168,0.016419467,0.985168,491.0
1185,986000,0.016433334,0.986,530.0
1186,986836,0.016447267,0.986836,527.0
1187,987668,0.016461134,0.987668,535.0
1188,988500,0.016475,0.9885,492.0
1189,989336,0.016488934,0.989336,510.0
1190,990168,0.0165028,0.990168,564.0
1191,991000,0.016516667,0.991,566.0
1192,991836,0.0165306,0.991836,557.0
1193,992668,0.016544467,0.992668,533.0
1194,993500,0.016558334,0.9935,543.0
1195,994336,0.016572267,0.994336,547.0
1196,995168,0.016586134,0.995168,536.0
1197,996000,0.0166,0.996,507.0
1198,996836,0.016613934,0.996836,481.0
1199,997668,0.0166278,0.997668,472.0
1200,998500,0.016641667,0.9985,502.0
1201,999336,0.0166556,0.999336,501.0
1202,1000168,0.016669467,1.000168,507.0
1203,1001004,0.0166834,1.001004,487.0
1204,1001836,0.016697267,1.001836,511.0
1205,1002668,0.016711133,1.002668,529.0
1206,1003504,0.016725067,1.003504,514.0
1207,1004336,0.016738933,1.004336,499.0
1208,1005168,0.0167528,1.005168,501.0
1209,1006004,0.016766733,1.006004,466.0
1210,1006836,0.0167806,1.006836,511.0
1211,1007668,0.016794467,1.007668,525.0
1212,1008504,0.0168084,1.008504,532.0
1213,1009336,0.016822267,1.009336,494.0
1214,1010168,0.016836133,1.010168,481.0
1215,1011004,0.016850067,1.011004,519.0
1216,1011836,0.016863933,1.011836,526.0
1217,1012668,0.0168778,1.012668,549.0
1218,1013504,0.016891733,1.013504,561.0
1219,1014336,0.0169056,1.014336,539.0
1220,1015168,0.016919466,1.015168,505.0
1221,1016004,0.0169334,1.016004,537.0
1222,1016840,0.016947333,1.01684,564.0
1223,1017668,0.016961133,1.017668,515.0
1224,1018504,0.016975068,1.018504,473.0
1225,1019336,0.016988933,1.019336,486.0
1226,1020168,0.0170028,1.020168,499.0
1227,1021004,0.017016733,1.021004,491.0
1228,1021836,0.0170306,1.021836,504.0
1229,1022668,0.017044466,1.022668,505.0
1230,1023504,0.0170584,1.023504,501.0
1231,1024336,0.017072266,1.024336,547.0
1232,1025172,0.0170862,1.025172,547.0
1233,1026004,0.017100066,1.026004,518.0
1234,1026836,0.017113933,1.026836,475.0
1235,1027672,0.017127866,1.027672,482.0
1236,1028504,0.017141733,1.028504,538.0
1237,1029336,0.0171556,1.029336,521.0
1238,1030172,0.017169533,1.030172,504.0
1239,1031004,0.0171834,1.031004,494.0
1240,1031836,0.017197266,1.031836,449.0
1241,1032672,0.0172112,1.032672,489.0
1242,1033504,0.017225066,1.033504,525.0
1243,1034336,0.017238934,1.034336,536.0
1244,1035172,0.017252866,1.035172,511.0
1245,1036004,0.017266734,1.036004,495.0
1246,1036836,0.0172806,1.036836,527.0
1247,1037672,0.017294534,1.037672,550.0
1248,1038504,0.0173084,1.038504,549.0
1249,1039336,0.017322266,1.039336,548.0
1250,1040172,0.0173362,1.040172,502.0
1251,1041004,0.017350066,1.041004,484.0
1252,1041836,0.017363934,1.041836,497.0
1253,1042672,0.017377866,1.042672,509.0
1254,1043504,0.017391734,1.043504,508.0
1255,1044336,0.0174056,1.044336,473.0
1256,1045172,0.017419534,1.045172,505.0
1257,1046004,0.0174334,1.046004,529.0
1258,1046836,0.017447267,1.046836,540.0
1259,1047672,0.0174612,1.047672,566.0
1260,1048504,0.017475067,1.048504,520.0
1261,1049336,0.017488934,1.049336,480.0
1262,1050172,0.017502867,1.050172,508.0
1263,1051004,0.017516734,1.051004,507.0
1264,1051836,0.0175306,1.051836,510.0
1265,1052672,0.017544534,1.052672,489.0
1266,1053504,0.0175584,1.053504,486.0
1267,1054340,0.017572334,1.05434,494.0
1268,1055172,0.0175862,1.055172,506.0
1269,1056004,0.017600067,1.056004,502.0
1270,1056840,0.017614,1.05684,506.0
1271,1057672,0.017627867,1.057672,476.0
1272,1058504,0.017641732,1.058504,530.0
1273,1059340,0.017655667,1.05934,569.0
1274,1060172,0.017669532,1.060172,537.0
1275,1061004,0.0176834,1.061004,509.0
1276,1061840,0.017697332,1.06184,486.0
1277,1062672,0.0177112,1.062672,519.0
1278,1063504,0.017725067,1.063504,559.0
1279,1064340,0.017739,1.06434,514.0
1280,1065172,0.017752867,1.065172,494.0
1281,1066004,0.017766733,1.066004,488.0
1282,1066840,0.017780667,1.06684,486.0
1283,1067672,0.017794533,1.067672,511.0
1284,1068504,0.0178084,1.068504,526.0
1285,1069340,0.017822333,1.06934,549.0
1286,1070172,0.0178362,1.070172,524.0
1287,1071004,0.017850067,1.071004,523.0
1288,1071840,0.017864,1.07184,542.0
1289,1072672,0.017877867,1.072672,493.0
1290,1073504,0.017891733,1.073504,480.0
1291,1074340,0.017905667,1.07434,499.0
1292,1075172,0.017919533,1.075172,475.0
1293,1076004,0.0179334,1.076004,486.0
1294,1076840,0.017947333,1.07684,503.0
1295,1077672,0.0179612,1.077672,512.0
1296,1078504,0.017975066,1.078504,503.0
1297,1079340,0.017989,1.07934,480.0
1298,1080172,0.018002866,1.080172,529.0
1299,1081008,0.0180168,1.081008,552.0
1300,1081840,0.018030666,1.08184,576.0
1301,1082672,0.018044533,1.082672,532.0
1302,1083508,0.018058466,1.083508,521.0
1303,1084340,0.018072333,1.08434,543.0
1304,1085172,0.0180862,1.085172,560.0
1305,1086008,0.018100133,1.086008,515.0
1306,1086840,0.018114,1.08684,480.0
1307,1087672,0.018127866,1.087672,509.0
1308,1088508,0.0181418,1.088508,488.0
1309,1089340,0.018155666,1.08934,483.0
1310,1090172,0.018169533,1.090172,501.0
1311,1091008,0.018183466,1.091008,527.0
1312,1091840,0.018197333,1.09184,489.0
1313,1092672,0.0182112,1.092672,500.0
1314,1093508,0.018225133,1.093508,542.0
1315,1094340,0.018239,1.09434,502.0
1316,1095172,0.018252866,1.095172,489.0
1317,1096008,0.0182668,1.096008,507.0
1318,1096840,0.018280666,1.09684,488.0
1319,1097672,0.018294534,1.097672,466.0
1320,1098508,0.018308466,1.098508,527.0
1321,1099340,0.018322334,1.09934,509.0
1322,1100172,0.0183362,1.100172,487.0
1323,1101008,0.018350134,1.101008,466.0
1324,1101840,0.018364,1.10184,559.0
1325,1102672,0.018377867,1.102672,569.0
1326,1103508,0.0183918,1.103508,499.0
1327,1104340,0.018405667,1.10434,553.0
1328,1105172,0.018419534,1.105172,523.0
1329,1106008,0.018433467,1.106008,519.0
1330,1106840,0.018447334,1.10684,512.0
1331,1107676,0.018461267,1.107676,570.0
1332,1108508,0.018475134,1.108508,547.0
1333,1109340,0.018489,1.10934,442.0
1334,1110176,0.018502934,1.110176,473.0
1335,1111008,0.0185168,1.111008,514.0
1336,1111840,0.018530667,1.11184,505.0
1337,1112676,0.0185446,1.112676,461.0
1338,1113508,0.018558467,1.113508,486.0
1339,1114340,0.018572334,1.11434,553.0
1340,1115176,0.018586267,1.115176,527.0
1341,1116008,0.018600134,1.116008,520.0
1342,1116840,0.018614,1.11684,516.0
1343,1117676,0.018627934,1.117676,430.0
1344,1118508,0.0186418,1.118508,466.0
1345,1119340,0.018655667,1.11934,542.0
1346,1120176,0.0186696,1.120176,519.0
1347,1121008,0.018683467,1.121008,503.0
1348,1121840,0.018697333,1.12184,521.0
1349,1122676,0.018711267,1.122676,462.0
1350,1123508,0.018725133,1.123508,516.0
1351,1124340,0.018739,1.12434,530.0
1352,1125176,0.018752933,1.125176,498.0
1353,1126008,0.0187668,1.126008,474.0
1354,1126840,0.018780667,1.12684,496.0
1355,1127676,0.0187946,1.127676,509.0
1356,1128508,0.018808467,1.128508,553.0
1357,1129340,0.018822333,1.12934,574.0
1358,1130176,0.018836267,1.130176,519.0
1359,1131008,0.018850133,1.131008,548.0
1360,1131840,0.018864,1.13184,524.0
1361,1132676,0.018877933,1.132676,527.0
1362,1133508,0.0188918,1.133508,442.0
1363,1134344,0.018905733,1.134344,484.0
1364,1135176,0.0189196,1.135176,487.0
1365,1136008,0.018933468,1.136008,515.0
1366,1136844,0.0189474,1.136844,519.0
1367,1137676,0.018961268,1.137676,557.0
1368,1138508,0.018975133,1.138508,539.0
1369,1139344,0.018989068,1.139344,544.0
1370,1140176,0.019002933,1.140176,536.0
1371,1141008,0.0190168,1.141008,505.0
1372,1141844,0.019030733,1.141844,479.0
1373,1142676,0.0190446,1.142676,463.0
1374,1143508,0.019058466,1.143508,466.0
1375,1144344,0.0190724,1.144344,496.0
1376,1145176,0.019086266,1.145176,518.0
1377,1146008,0.019100133,1.146008,529.0
1378,1146844,0.019114066,1.146844,482.0
1379,1147676,0.019127933,1.147676,496.0
1380,1148508,0.0191418,1.148508,524.0
1381,1149344,0.019155733,1.149344,512.0
1382,1150176,0.0191696,1.150176,497.0
1383,1151008,0.019183466,1.151008,531.0
1384,1151844,0.0191974,1.151844,492.0
1385,1152676,0.019211266,1.152676,526.0
1386,1153508,0.019225134,1.153508,556.0
1387,1154344,0.019239066,1.154344,542.0
1388,1155176,0.019252934,1.155176,574.0
1389,1156008,0.0192668,1.156008,509.0
1390,1156844,0.019280734,1.156844,500.0
1391,1157676,0.0192946,1.157676,532.0
1392,1158508,0.019308466,1.158508,506.0
1393,1159344,0.0193224,1.159344,506.0
1394,1160176,0.019336266,1.160176,477.0
1395,1161012,0.0193502,1.161012,490.0
1396,1161844,0.019364066,1.161844,555.0
1397,1162676,0.019377934,1.162676,563.0
1398,1163512,0.019391866,1.163512,531.0
1399,1164344,0.019405734,1.164344,530.0
1400,1165176,0.0194196,1.165176,496.0
1401,1166012,0.019433534,1.166012,466.0
1402,1166844,0.0194474,1.166844,511.0
1403,1167676,0.019461267,1.167676,480.0
1404,1168512,0.0194752,1.168512,491.0
1405,1169344,0.019489067,1.169344,446.0
1406,1170176,0.019502934,1.170176,526.0
1407,1171012,0.019516867,1.171012,539.0
1408,1171844,0.019530734,1.171844,531.0
1409,1172676,0.0195446,1.172676,568.0
1410,1173512,0.019558534,1.173512,514.0
1411,1174344,0.0195724,1.174344,526.0
1412,1175176,0.019586267,1.175176,495.0
1413,1176012,0.0196002,1.176012,519.0
1414,1176844,0.019614067,1.176844,564.0
1415,1177676,0.019627932,1.177676,500.0
1416,1178512,0.019641867,1.178512,521.0
1417,1179344,0.019655732,1.179344,537.0
1418,1180176,0.0196696,1.180176,542.0
1419,1181012,0.019683532,1.181012,495.0
1420,1181844,0.0196974,1.181844,505.0
1421,1182676,0.019711267,1.182676,500.0
1422,1183512,0.0197252,1.183512,517.0
1423,1184344,0.019739067,1.184344,498.0
1424,1185176,0.019752933,1.185176,528.0
1425,1186012,0.019766867,1.186012,513.0
1426,1186844,0.019780733,1.186844,485.0
1427,1187680,0.019794667,1.18768,537.0
1428,1188512,0.019808533,1.188512,511.0
1429,1189344,0.0198224,1.189344,488.0
1430,1190180,0.019836333,1.19018,481.0
1431,1191012,0.0198502,1.191012,432.0
1432,1191844,0.019864067,1.191844,506.0
1433,1192680,0.019878,1.19268,500.0
1434,1193512,0.019891867,1.193512,507.0
1435,1194344,0.019905733,1.194344,534.0
1436,1195180,0.019919667,1.19518,494.0
1437,1196012,0.019933533,1.196012,563.0
1438,1196844,0.0199474,1.196844,585.0
1439,1197680,0.019961333,1.19768,543.0
1440,1198512,0.0199752,1.198512,523.0
1441,1199344,0.019989066,1.199344,465.0
1442,1200180,0.020003,1.20018,508.0
1443,1201012,0.020016866,1.201012,553.0
1444,1201844,0.020030733,1.201844,520.0
1445,1202680,0.020044666,1.20268,488.0
1446,1203512,0.020058533,1.203512,476.0
1447,1204344,0.0200724,1.204344,507.0
1448,1205180,0.020086333,1.20518,543.0
1449,1206012,0.0201002,1.206012,533.0
1450,1206844,0.020114066,1.206844,501.0
1451,1207680,0.020128,1.20768,468.0
1452,1208512,0.020141866,1.208512,479.0
1453,1209352,0.020155868,1.209352,542.0
1454,1210180,0.020169666,1.21018,506.0
1455,1211012,0.020183533,1.211012,499.0
1456,1211844,0.0201974,1.211844,501.0
1457,1212680,0.020211333,1.21268,497.0
1458,1213512,0.0202252,1.213512,529.0
1459,1214348,0.020239133,1.214348,511.0
1460,1215180,0.020253,1.21518,480.0
1461,1216012,0.020266866,1.216012,504.0
1462,1216848,0.0202808,1.216848,487.0
1463,1217680,0.020294666,1.21768,520.0
1464,1218512,0.020308534,1.218512,521.0
1465,1219348,0.020322466,1.219348,550.0
1466,1220180,0.020336334,1.22018,576.0
1467,1221012,0.0203502,1.221012,542.0
1468,1221848,0.020364134,1.221848,547.0
1469,1222680,0.020378,1.22268,503.0
1470,1223512,0.020391867,1.223512,493.0
1471,1224348,0.0204058,1.224348,501.0
1472,1225180,0.020419667,1.22518,487.0
1473,1226012,0.020433534,1.226012,498.0
1474,1226848,0.020447467,1.226848,506.0
1475,1227680,0.020461334,1.22768,544.0
1476,1228512,0.0204752,1.228512,549.0
1477,1229348,0.020489134,1.229348,491.0
1478,1230180,0.020503,1.23018,492.0
1479,1231012,0.020516867,1.231012,527.0
1480,1231848,0.0205308,1.231848,492.0
1481,1232680,0.020544667,1.23268,510.0
1482,1233512,0.020558534,1.233512,498.0
1483,1234348,0.020572467,1.234348,488.0
1484,1235180,0.020586334,1.23518,527.0
1485,1236012,0.0206002,1.236012,556.0
1486,1236848,0.020614134,1.236848,534.0
1487,1237680,0.020628,1.23768,493.0
1488,1238512,0.020641867,1.238512,476.0
1489,1239348,0.0206558,1.239348,505.0
1490,1240180,0.020669667,1.24018,522.0
1491,1241016,0.0206836,1.241016,513.0
1492,1241848,0.020697467,1.241848,503.0
1493,1242680,0.020711333,1.24268,476.0
1494,1243516,0.020725267,1.243516,557.0
1495,1244348,0.020739133,1.244348,576.0
1496,1245180,0.020753,1.24518,576.0
1497,1246016,0.020766933,1.246016,528.0
1498,1246848,0.0207808,1.246848,480.0
1499,1247680,0.020794667,1.24768,518.0
1500,1248516,0.0208086,1.248516,506.0
1501,1249348,0.020822467,1.249348,474.0
1502,1250180,0.020836333,1.25018,477.0
1503,1251016,0.020850267,1.251016,451.0
1504,1251848,0.020864133,1.251848,518.0
1505,1252680,0.020878,1.25268,566.0
1506,1253516,0.020891933,1.253516,560.0
1507,1254348,0.0209058,1.254348,550.0
1508,1255180,0.020919668,1.25518,498.0
1509,1256016,0.0209336,1.256016,514.0
1510,1256848,0.020947468,1.256848,506.0
1511,1257680,0.020961333,1.25768,479.0
1512,1258516,0.020975268,1.258516,490.0
1513,1259348,0.020989133,1.259348,451.0
1514,1260180,0.021003,1.26018,504.0
1515,1261016,0.021016933,1.261016,532.0
1516,1261848,0.0210308,1.261848,511.0
1517,1262680,0.021044666,1.26268,549.0
1518,1263516,0.0210586,1.263516,507.0
1519,1264348,0.021072466,1.264348,502.0
1520,1265180,0.021086333,1.26518,543.0
1521,1266016,0.021100266,1.266016,515.0
1522,1266848,0.021114133,1.266848,525.0
1523,1267684,0.021128066,1.267684,511.0
1524,1268516,0.021141933,1.268516,508.0
1525,1269348,0.0211558,1.269348,531.0
1526,1270184,0.021169733,1.270184,529.0
1527,1271016,0.0211836,1.271016,523.0
1528,1271848,0.021197466,1.271848,472.0
1529,1272684,0.0212114,1.272684,465.0
1530,1273516,0.021225266,1.273516,518.0
1531,1274348,0.021239134,1.274348,534.0
1532,1275184,0.021253066,1.275184,510.0
1533,1276016,0.021266934,1.276016,507.0
1534,1276848,0.0212808,1.276848,512.0
1535,1277684,0.021294734,1.277684,554.0
1536,1278516,0.0213086,1.278516,559.0
1537,1279348,0.021322466,1.279348,518.0
1538,1280184,0.0213364,1.280184,494.0
1539,1281016,0.021350266,1.281016,461.0
1540,1281848,0.021364134,1.281848,479.0
1541,1282684,0.021378066,1.282684,491.0
1542,1283516,0.021391934,1.283516,454.0
1543,1284348,0.0214058,1.284348,504.0
1544,1285184,0.021419734,1.285184,505.0
1545,1286016,0.0214336,1.286016,518.0
1546,1286848,0.021447467,1.286848,536.0
1547,1287684,0.0214614,1.287684,527.0
1548,1288516,0.021475267,1.288516,546.0
1549,1289348,0.021489134,1.289348,540.0
1550,1290184,0.021503067,1.290184,529.0
1551,1291016,0.021516934,1.291016,538.0
1552,1291848,0.0215308,1.291848,475.0
1553,1292684,0.021544734,1.292684,555.0
1554,1293516,0.0215586,1.293516,505.0
1555,1294352,0.021572534,1.294352,484.0
1556,1295184,0.0215864,1.295184,506.0
1557,1296016,0.021600267,1.296016,488.0
1558,1296852,0.0216142,1.296852,517.0
1559,1297684,0.021628067,1.297684,505.0
1560,1298516,0.021641932,1.298516,480.0
1561,1299352,0.021655867,1.299352,516.0
1562,1300184,0.021669732,1.300184,509.0
1563,1301016,0.0216836,1.301016,559.0
1564,1301852,0.021697534,1.301852,538.0
1565,1302684,0.0217114,1.302684,533.0
1566,1303516,0.021725267,1.303516,546.0
1567,1304352,0.0217392,1.304352,542.0
1568,1305184,0.021753067,1.305184,529.0
1569,1306016,0.021766933,1.306016,494.0
1570,1306852,0.021780867,1.306852,495.0
1571,1307684,0.021794733,1.307684,508.0
1572,1308516,0.0218086,1.308516,481.0
1573,1309352,0.021822533,1.309352,476.0
1574,1310184,0.0218364,1.310184,498.0
1575,1311016,0.021850267,1.311016,518.0
1576,1311852,0.0218642,1.311852,549.0
1577,1312684,0.021878067,1.312684,534.0
1578,1313516,0.021891933,1.313516,522.0
1579,1314352,0.021905867,1.314352,529.0
1580,1315184,0.021919733,1.315184,482.0
1581,1316016,0.0219336,1.316016,525.0
1582,1316852,0.021947533,1.316852,536.0
1583,1317684,0.0219614,1.317684,517.0
1584,1318516,0.021975266,1.318516,550.0
1585,1319352,0.0219892,1.319352,517.0
1586,1320184,0.022003066,1.320184,499.0
1587,1321020,0.022017,1.32102,486.0
1588,1321852,0.022030866,1.321852,475.0
1589,1322684,0.022044733,1.322684,502.0
1590,1323520,0.022058666,1.32352,434.0
1591,1324352,0.022072533,1.324352,471.0
1592,1325184,0.0220864,1.325184,537.0
1593,1326020,0.022100333,1.32602,509.0
1594,1326852,0.0221142,1.326852,540.0
1595,1327684,0.022128066,1.327684,528.0
1596,1328520,0.022142,1.32852,543.0
1597,1329352,0.022155866,1.329352,491.0
1598,1330184,0.022169733,1.330184,525.0
1599,1331020,0.022183666,1.33102,518.0
1600,1331852,0.022197533,1.331852,519.0
1601,1332684,0.0222114,1.332684,514.0
1602,1333520,0.022225333,1.33352,533.0
1603,1334352,0.0222392,1.334352,578.0
1604,1335184,0.022253066,1.335184,568.0
1605,1336020,0.022267,1.33602,505.0
1606,1336852,0.022280866,1.336852,508.0
1607,1337684,0.022294734,1.337684,495.0
1608,1338520,0.022308666,1.33852,511.0
1609,1339352,0.022322534,1.339352,497.0
1610,1340184,0.0223364,1.340184,467.0
1611,1341020,0.022350334,1.34102,445.0
1612,1341852,0.0223642,1.341852,471.0
1613,1342684,0.022378067,1.342684,506.0
1614,1343520,0.022392,1.34352,497.0
1615,1344352,0.022405867,1.344352,512.0
1616,1345184,0.022419734,1.345184,477.0
1617,1346020,0.022433667,1.34602,501.0
1618,1346852,0.022447534,1.346852,500.0
1619,1347688,0.022461466,1.347688,481.0
1620,1348520,0.022475334,1.34852,526.0
1621,1349352,0.0224892,1.349352,501.0
1622,1350188,0.022503134,1.350188,556.0
1623,1351020,0.022517,1.35102,546.0
1624,1351852,0.022530867,1.351852,562.0
1625,1352688,0.0225448,1.352688,554.0
1626,1353520,0.022558667,1.35352,517.0
1627,1354352,0.022572534,1.354352,528.0
1628,1355188,0.022586467,1.355188,523.0
1629,1356020,0.022600334,1.35602,551.0
1630,1356852,0.0226142,1.356852,541.0
1631,1357688,0.022628134,1.357688,536.0
1632,1358520,0.022642,1.35852,560.0
1633,1359352,0.022655867,1.359352,527.0
1634,1360188,0.0226698,1.360188,551.0
1635,1361020,0.022683667,1.36102,513.0
1636,1361852,0.022697533,1.361852,453.0
1637,1362688,0.022711467,1.362688,494.0
1638,1363520,0.022725333,1.36352,510.0
1639,1364352,0.0227392,1.364352,491.0
1640,1365188,0.022753133,1.365188,528.0
1641,1366024,0.022767067,1.366024,505.0
1642,1366852,0.022780867,1.366852,525.0
1643,1367688,0.0227948,1.367688,525.0
1644,1368520,0.022808667,1.36852,538.0
1645,1369352,0.022822533,1.369352,487.0
1646,1370188,0.022836467,1.370188,501.0
1647,1371020,0.022850333,1.37102,520.0
1648,1371852,0.0228642,1.371852,509.0
1649,1372688,0.022878133,1.372688,515.0
1650,1373520,0.022892,1.37352,505.0
1651,1374356,0.022905933,1.374356,502.0
1652,1375188,0.0229198,1.375188,508.0
1653,1376020,0.022933668,1.37602,494.0
1654,1376856,0.0229476,1.376856,481.0
1655,1377688,0.022961468,1.377688,435.0
1656,1378520,0.022975333,1.37852,471.0
1657,1379356,0.022989267,1.379356,487.0
1658,1380188,0.023003133,1.380188,516.0
1659,1381020,0.023017,1.38102,517.0
1660,1381856,0.023030933,1.381856,519.0
1661,1382688,0.0230448,1.382688,556.0
1662,1383520,0.023058666,1.38352,549.0
1663,1384356,0.0230726,1.384356,533.0
1664,1385188,0.023086466,1.385188,513.0
1665,1386020,0.023100333,1.38602,514.0
1666,1386856,0.023114266,1.386856,542.0
1667,1387688,0.023128133,1.387688,516.0
1668,1388520,0.023142,1.38852,524.0
1669,1389356,0.023155933,1.389356,498.0
1670,1390188,0.0231698,1.390188,542.0
1671,1391020,0.023183666,1.39102,560.0
1672,1391856,0.0231976,1.391856,529.0
1673,1392688,0.023211466,1.392688,513.0
1674,1393520,0.023225334,1.39352,508.0
1675,1394356,0.023239266,1.394356,515.0
1676,1395188,0.023253134,1.395188,537.0
1677,1396020,0.023267,1.39602,502.0
1678,1396856,0.023280933,1.396856,447.0
1679,1397688,0.0232948,1.397688,467.0
1680,1398524,0.023308733,1.398524,491.0
1681,1399356,0.0233226,1.399356,516.0
1682,1400188,0.023336466,1.400188,450.0
1683,1401024,0.0233504,1.401024,517.0
1684,1401856,0.023364266,1.401856,485.0
1685,1402688,0.023378134,1.402688,505.0
1686,1403524,0.023392066,1.403524,512.0
1687,1404356,0.023405934,1.404356,509.0
1688,1405188,0.0234198,1.405188,526.0
1689,1406024,0.023433734,1.406024,538.0
1690,1406856,0.0234476,1.406856,550.0
1691,1407688,0.023461467,1.407688,518.0
1692,1408524,0.0234754,1.408524,480.0
1693,1409356,0.023489267,1.409356,530.0
1694,1410188,0.023503134,1.410188,488.0
1695,1411024,0.023517067,1.411024,505.0
1696,1411856,0.023530934,1.411856,498.0
1697,1412688,0.0235448,1.412688,513.0
1698,1413524,0.023558734,1.413524,497.0
1699,1414356,0.0235726,1.414356,519.0
1700,1415188,0.023586467,1.415188,547.0
1701,1416024,0.0236004,1.416024,520.0
1702,1416856,0.023614267,1.416856,559.0
1703,1417688,0.023628132,1.417688,515.0
1704,1418524,0.023642067,1.418524,498.0
1705,1419356,0.023655934,1.419356,532.0
1706,1420188,0.0236698,1.420188,475.0
1707,1421024,0.023683734,1.421024,539.0
1708,1421856,0.0236976,1.421856,462.0
1709,1422688,0.023711467,1.422688,522.0
1710,1423524,0.0237254,1.423524,518.0
1711,1424356,0.023739267,1.424356,520.0
1712,1425188,0.023753133,1.425188,570.0
1713,1426024,0.023767067,1.426024,529.0
1714,1426856,0.023780933,1.426856,545.0
1715,1427692,0.023794867,1.427692,551.0
1716,1428524,0.023808733,1.428524,537.0
1717,1429356,0.0238226,1.429356,523.0
1718,1430192,0.023836533,1.430192,506.0
1719,1431024,0.0238504,1.431024,481.0
1720,1431856,0.023864267,1.431856,482.0
1721,1432692,0.0238782,1.432692,460.0
1722,1433524,0.023892067,1.433524,518.0
1723,1434356,0.023905933,1.434356,489.0
1724,1435192,0.023919867,1.435192,464.0
1725,1436024,0.023933733,1.436024,480.0
1726,1436856,0.0239476,1.436856,480.0
1727,1437692,0.023961533,1.437692,491.0
1728,1438524,0.0239754,1.438524,521.0
1729,1439356,0.023989266,1.439356,527.0
1730,1440192,0.0240032,1.440192,545.0
1731,1441024,0.024017066,1.441024,531.0
1732,1441856,0.024030933,1.441856,514.0
1733,1442692,0.024044866,1.442692,494.0
1734,1443524,0.024058733,1.443524,453.0
1735,1444356,0.0240726,1.444356,495.0
1736,1445192,0.024086533,1.445192,523.0
1737,1446024,0.0241004,1.446024,504.0
1738,1446856,0.024114266,1.446856,561.0
1739,1447692,0.0241282,1.447692,552.0
1740,1448524,0.024142066,1.448524,569.0
1741,1449356,0.024155933,1.449356,560.0
1742,1450192,0.024169866,1.450192,532.0
1743,1451024,0.024183733,1.451024,523.0
1744,1451856,0.0241976,1.451856,518.0
1745,1452692,0.024211533,1.452692,511.0
1746,1453524,0.0242254,1.453524,491.0
1747,1454360,0.024239333,1.45436,481.0
1748,1455192,0.0242532,1.455192,530.0
1749,1456024,0.024267066,1.456024,505.0
1750,1456860,0.024281,1.45686,520.0
1751,1457692,0.024294866,1.457692,505.0
1752,1458524,0.024308734,1.458524,493.0
1753,1459360,0.024322666,1.45936,482.0
1754,1460192,0.024336534,1.460192,485.0
1755,1461024,0.0243504,1.461024,452.0
1756,1461860,0.024364334,1.46186,499.0
1757,1462692,0.0243782,1.462692,519.0
1758,1463524,0.024392067,1.463524,515.0
1759,1464360,0.024406,1.46436,518.0
1760,1465192,0.024419867,1.465192,489.0
1761,1466024,0.024433734,1.466024,528.0
1762,1466860,0.024447666,1.46686,502.0
1763,1467692,0.024461534,1.467692,491.0
1764,1468524,0.0244754,1.468524,521.0
1765,1469360,0.024489334,1.46936,483.0
1766,1470192,0.0245032,1.470192,520.0
1767,1471024,0.024517067,1.471024,526.0
1768,1471860,0.024531,1.47186,542.0
1769,1472692,0.024544867,1.472692,566.0
1770,1473524,0.024558734,1.473524,540.0
1771,1474360,0.024572667,1.47436,538.0
1772,1475192,0.024586534,1.475192,518.0
1773,1476024,0.0246004,1.476024,486.0
1774,1476860,0.024614334,1.47686,506.0
1775,1477692,0.0246282,1.477692,505.0
1776,1478528,0.024642134,1.478528,485.0
1777,1479360,0.024656,1.47936,527.0
1778,1480192,0.024669867,1.480192,530.0
1779,1481028,0.0246838,1.481028,554.0
1780,1481860,0.024697667,1.48186,563.0
1781,1482692,0.024711533,1.482692,494.0
1782,1483528,0.024725467,1.483528,500.0
1783,1484360,0.024739332,1.48436,494.0
1784,1485192,0.0247532,1.485192,489.0
1785,1486028,0.024767132,1.486028,500.0
1786,1486860,0.024781,1.48686,490.0
1787,1487692,0.024794867,1.487692,513.0
1788,1488528,0.0248088,1.488528,563.0
1789,1489360,0.024822667,1.48936,543.0
1790,1490192,0.024836533,1.490192,510.0
1791,1491028,0.024850467,1.491028,462.0
1792,1491860,0.024864333,1.49186,488.0
1793,1492692,0.0248782,1.492692,498.0
1794,1493528,0.024892133,1.493528,496.0
1795,1494360,0.024906,1.49436,528.0
1796,1495192,0.024919868,1.495192,507.0
1797,1496028,0.0249338,1.496028,548.0
1798,1496860,0.024947667,1.49686,542.0
1799,1497692,0.024961533,1.497692,508.0
1800,1498528,0.024975467,1.498528,532.0
1801,1499360,0.024989333,1.49936,533.0
1802,1500192,0.0250032,1.500192,470.0
1803,1501028,0.025017133,1.501028,505.0
1804,1501860,0.025031,1.50186,498.0
1805,1502692,0.025044866,1.502692,515.0
1806,1503528,0.0250588,1.503528,525.0
1807,1504360,0.025072666,1.50436,518.0
1808,1505192,0.025086533,1.505192,485.0
1809,1506028,0.025100466,1.506028,537.0
1810,1506860,0.025114333,1.50686,549.0
1811,1507696,0.025128266,1.507696,503.0
1812,1508528,0.025142133,1.508528,496.0
1813,1509360,0.025156,1.50936,488.0
1814,1510196,0.025169933,1.510196,516.0
1815,1511028,0.0251838,1.511028,530.0
1816,1511860,0.025197666,1.51186,525.0
1817,1512696,0.0252116,1.512696,504.0
1818,1513528,0.025225466,1.513528,539.0
1819,1514360,0.025239334,1.51436,554.0
1820,1515196,0.025253266,1.515196,511.0
1821,1516028,0.025267133,1.516028,472.0
1822,1516860,0.025281,1.51686,458.0
1823,1517696,0.025294933,1.517696,475.0
1824,1518528,0.0253088,1.518528,523.0
1825,1519360,0.025322666,1.51936,509.0
1826,1520196,0.0253366,1.520196,524.0
1827,1521028,0.025350466,1.521028,516.0
1828,1521860,0.025364334,1.52186,519.0
1829,1522696,0.025378266,1.522696,536.0
1830,1523528,0.025392134,1.523528,485.0
1831,1524360,0.025406,1.52436,513.0
1832,1525196,0.025419934,1.525196,492.0
1833,1526028,0.0254338,1.526028,479.0
1834,1526860,0.025447667,1.52686,472.0
1835,1527696,0.0254616,1.527696,537.0
1836,1528528,0.025475467,1.528528,552.0
1837,1529360,0.025489334,1.52936,525.0
1838,1530196,0.025503267,1.530196,530.0
1839,1531028,0.025517134,1.531028,506.0
1840,1531860,0.025531,1.53186,507.0
1841,1532696,0.025544934,1.532696,495.0
1842,1533528,0.0255588,1.533528,483.0
1843,1534364,0.025572734,1.534364,514.0
1844,1535196,0.0255866,1.535196,533.0
1845,1536028,0.025600467,1.536028,521.0
1846,1536864,0.0256144,1.536864,539.0
1847,1537696,0.025628267,1.537696,479.0
1848,1538528,0.025642134,1.538528,514.0
1849,1539364,0.025656067,1.539364,519.0
1850,1540196,0.025669934,1.540196,506.0
1851,1541028,0.0256838,1.541028,488.0
1852,1541864,0.025697734,1.541864,482.0
1853,1542696,0.0257116,1.542696,533.0
1854,1543528,0.025725467,1.543528,526.0
1855,1544364,0.0257394,1.544364,557.0
1856,1545196,0.025753267,1.545196,562.0
1857,1546028,0.025767133,1.546028,541.0
1858,1546864,0.025781067,1.546864,517.0
1859,1547696,0.025794933,1.547696,482.0
1860,1548528,0.0258088,1.548528,494.0
1861,1549364,0.025822733,1.549364,479.0
1862,1550196,0.0258366,1.550196,482.0
1863,1551028,0.025850467,1.551028,483.0
1864,1551864,0.0258644,1.551864,518.0
1865,1552696,0.025878267,1.552696,550.0
1866,1553528,0.025892133,1.553528,542.0
1867,1554364,0.025906067,1.554364,548.0
1868,1555196,0.025919933,1.555196,511.0
1869,1556028,0.0259338,1.556028,521.0
1870,1556864,0.025947733,1.556864,494.0
1871,1557696,0.0259616,1.557696,484.0
1872,1558536,0.0259756,1.558536,510.0
1873,1559364,0.0259894,1.559364,507.0
1874,1560196,0.026003266,1.560196,499.0
1875,1561032,0.0260172,1.561032,518.0
1876,1561864,0.026031068,1.561864,517.0
1877,1562696,0.026044933,1.562696,558.0
1878,1563532,0.026058868,1.563532,479.0
1879,1564364,0.026072733,1.564364,521.0
1880,1565196,0.0260866,1.565196,512.0
1881,1566032,0.026100533,1.566032,509.0
1882,1566864,0.0261144,1.566864,521.0
1883,1567696,0.026128266,1.567696,490.0
1884,1568532,0.0261422,1.568532,525.0
1885,1569364,0.026156066,1.569364,501.0
1886,1570196,0.026169933,1.570196,509.0
1887,1571032,0.026183866,1.571032,534.0
1888,1571864,0.026197733,1.571864,507.0
1889,1572696,0.0262116,1.572696,532.0
1890,1573532,0.026225533,1.573532,493.0
1891,1574364,0.0262394,1.574364,540.0
1892,1575196,0.026253266,1.575196,538.0
1893,1576032,0.0262672,1.576032,503.0
1894,1576864,0.026281066,1.576864,516.0
1895,1577696,0.026294934,1.577696,532.0
1896,1578532,0.026308866,1.578532,548.0
1897,1579364,0.026322734,1.579364,522.0
1898,1580196,0.0263366,1.580196,494.0
1899,1581032,0.026350534,1.581032,457.0
1900,1581864,0.0263644,1.581864,447.0
1901,1582696,0.026378267,1.582696,459.0
1902,1583532,0.0263922,1.583532,445.0
1903,1584364,0.026406066,1.584364,524.0
1904,1585196,0.026419934,1.585196,524.0
1905,1586032,0.026433866,1.586032,542.0
1906,1586864,0.026447734,1.586864,524.0
1907,1587700,0.026461666,1.5877,537.0
1908,1588532,0.026475534,1.588532,548.0
1909,1589364,0.0264894,1.589364,472.0
1910,1590200,0.026503334,1.5902,517.0
1911,1591032,0.0265172,1.591032,479.0
1912,1591864,0.026531067,1.591864,497.0
1913,1592700,0.026545,1.5927,524.0
1914,1593532,0.026558867,1.593532,483.0
1915,1594364,0.026572734,1.594364,522.0
1916,1595200,0.026586667,1.5952,525.0
1917,1596032,0.026600534,1.596032,543.0
1918,1596864,0.0266144,1.596864,534.0
1919,1597700,0.026628334,1.5977,469.0
1920,1598532,0.0266422,1.598532,508.0
1921,1599364,0.026656067,1.599364,497.0
1922,1600200,0.02667,1.6002,542.0
1923,1601032,0.026683867,1.601032,539.0
1924,1601864,0.026697733,1.601864,508.0
1925,1602700,0.026711667,1.6027,513.0
1926,1603532,0.026725532,1.603532,512.0
1927,1604364,0.0267394,1.604364,523.0
1928,1605200,0.026753332,1.6052,513.0
1929,1606032,0.0267672,1.606032,473.0
1930,1606864,0.026781067,1.606864,485.0
1931,1607700,0.026795,1.6077,501.0
1932,1608532,0.026808867,1.608532,527.0
1933,1609364,0.026822733,1.609364,508.0
1934,1610200,0.026836667,1.6102,563.0
1935,1611032,0.026850533,1.611032,518.0
1936,1611868,0.026864467,1.611868,570.0
1937,1612700,0.026878333,1.6127,519.0
1938,1613532,0.0268922,1.613532,461.0
1939,1614368,0.026906133,1.614368,520.0
1940,1615200,0.02692,1.6152,463.0
1941,1616032,0.026933867,1.616032,507.0
1942,1616868,0.0269478,1.616868,498.0
1943,1617700,0.026961667,1.6177,501.0
1944,1618532,0.026975533,1.618532,565.0
1945,1619368,0.026989467,1.619368,489.0
1946,1620200,0.027003333,1.6202,551.0
1947,1621032,0.0270172,1.621032,520.0
1948,1621868,0.027031133,1.621868,521.0
1949,1622700,0.027045,1.6227,512.0
1950,1623532,0.027058866,1.623532,468.0
1951,1624368,0.0270728,1.624368,468.0
1952,1625200,0.027086666,1.6252,489.0
1953,1626032,0.027100533,1.626032,532.0
1954,1626868,0.027114466,1.626868,526.0
1955,1627700,0.027128333,1.6277,515.0
1956,1628532,0.0271422,1.628532,510.0
1957,1629368,0.027156133,1.629368,502.0
1958,1630200,0.02717,1.6302,520.0
1959,1631032,0.027183866,1.631032,509.0
1960,1631868,0.0271978,1.631868,507.0
1961,1632700,0.027211666,1.6327,517.0
1962,1633532,0.027225534,1.633532,511.0
1963,1634368,0.027239466,1.634368,531.0
1964,1635200,0.027253333,1.6352,541.0
1965,1636032,0.0272672,1.636032,532.0
1966,1636868,0.027281133,1.636868,519.0
1967,1637700,0.027295,1.6377,491.0
1968,1638532,0.027308866,1.638532,520.0
1969,1639368,0.0273228,1.639368,460.0
1970,1640200,0.027336666,1.6402,505.0
1971,1641036,0.0273506,1.641036,501.0
1972,1641868,0.027364466,1.641868,531.0
1973,1642700,0.027378334,1.6427,525.0
1974,1643536,0.027392266,1.643536,531.0
1975,1644368,0.027406134,1.644368,529.0
1976,1645200,0.02742,1.6452,513.0
1977,1646036,0.027433934,1.646036,516.0
1978,1646868,0.0274478,1.646868,490.0
1979,1647700,0.027461667,1.6477,474.0
1980,1648536,0.0274756,1.648536,495.0
1981,1649368,0.027489467,1.649368,510.0
1982,1650200,0.027503334,1.6502,523.0
1983,1651036,0.027517267,1.651036,508.0
1984,1651868,0.027531134,1.651868,522.0
1985,1652700,0.027545,1.6527,531.0
1986,1653536,0.027558934,1.653536,525.0
1987,1654368,0.0275728,1.654368,485.0
1988,1655200,0.027586667,1.6552,491.0
1989,1656036,0.0276006,1.656036,510.0
1990,1656868,0.027614467,1.656868,514.0
1991,1657700,0.027628334,1.6577,505.0
1992,1658536,0.027642267,1.658536,526.0
1993,1659368,0.027656134,1.659368,536.0
1994,1660200,0.02767,1.6602,552.0
1995,1661036,0.027683934,1.661036,533.0
1996,1661868,0.0276978,1.661868,525.0
1997,1662700,0.027711667,1.6627,483.0
1998,1663536,0.0277256,1.663536,497.0
1999,1664368,0.027739467,1.664368,467.0
2000,1665204,0.0277534,1.665204,481.0
2001,1666036,0.027767267,1.666036,505.0
2002,1666868,0.027781133,1.666868,527.0
2003,1667704,0.027795067,1.667704,540.0
2004,1668536,0.027808933,1.668536,533.0
2005,1669368,0.0278228,1.669368,522.0
2006,1670204,0.027836733,1.670204,520.0
2007,1671036,0.0278506,1.671036,517.0
2008,1671868,0.027864467,1.671868,529.0
2009,1672704,0.0278784,1.672704,490.0
2010,1673536,0.027892267,1.673536,516.0
2011,1674368,0.027906133,1.674368,497.0
2012,1675204,0.027920067,1.675204,522.0
2013,1676036,0.027933933,1.676036,516.0
2014,1676868,0.0279478,1.676868,498.0
2015,1677704,0.027961733,1.677704,513.0
2016,1678536,0.0279756,1.678536,485.0
2017,1679368,0.027989466,1.679368,487.0
2018,1680204,0.0280034,1.680204,475.0
2019,1681036,0.028017268,1.681036,483.0
2020,1681868,0.028031133,1.681868,529.0
2021,1682704,0.028045068,1.682704,527.0
2022,1683536,0.028058933,1.683536,533.0
2023,1684368,0.0280728,1.684368,510.0
2024,1685204,0.028086733,1.685204,533.0
2025,1686036,0.0281006,1.686036,503.0
2026,1686868,0.028114466,1.686868,486.0
2027,1687704,0.0281284,1.687704,495.0
2028,1688536,0.028142266,1.688536,490.0
2029,1689368,0.028156133,1.689368,483.0
2030,1690204,0.028170066,1.690204,500.0
2031,1691036,0.028183933,1.691036,519.0
2032,1691868,0.0281978,1.691868,549.0
2033,1692704,0.028211733,1.692704,539.0
2034,1693536,0.0282256,1.693536,541.0
2035,1694372,0.028239533,1.694372,521.0
2036,1695204,0.0282534,1.695204,502.0
2037,1696036,0.028267266,1.696036,503.0
2038,1696872,0.0282812,1.696872,490.0
2039,1697704,0.028295066,1.697704,513.0
2040,1698536,0.028308934,1.698536,494.0
2041,1699372,0.028322866,1.699372,511.0
2042,1700204,0.028336734,1.700204,527.0
2043,1701036,0.0283506,1.701036,526.0
2044,1701872,0.028364534,1.701872,528.0
2045,1702704,0.0283784,1.702704,529.0
2046,1703536,0.028392266,1.703536,527.0
2047,1704372,0.0284062,1.704372,509.0
2048,1705204,0.028420066,1.705204,471.0
2049,1706036,0.028433934,1.706036,508.0
2050,1706872,0.028447866,1.706872,517.0
2051,1707704,0.028461734,1.707704,541.0
2052,1708536,0.0284756,1.708536,526.0
2053,1709372,0.028489534,1.709372,528.0
2054,1710204,0.0285034,1.710204,497.0
2055,1711036,0.028517267,1.711036,496.0
2056,1711872,0.0285312,1.711872,497.0
2057,1712704,0.028545067,1.712704,489.0
2058,1713536,0.028558934,1.713536,492.0
2059,1714372,0.028572867,1.714372,523.0
2060,1715208,0.0285868,1.715208,538.0
2061,1716036,0.0286006,1.716036,529.0
2062,1716872,0.028614534,1.716872,533.0
2063,1717704,0.0286284,1.717704,553.0
2064,1718536,0.028642267,1.718536,522.0
2065,1719372,0.0286562,1.719372,501.0
2066,1720204,0.028670067,1.720204,483.0
2067,1721040,0.028684,1.72104,460.0
2068,1721872,0.028697867,1.721872,472.0
2069,1722704,0.028711732,1.722704,513.0
2070,1723540,0.028725667,1.72354,545.0
2071,1724372,0.028739532,1.724372,552.0
2072,1725204,0.0287534,1.725204,531.0
2073,1726040,0.028767332,1.72604,535.0
2074,1726872,0.0287812,1.726872,549.0
2075,1727704,0.028795067,1.727704,517.0
2076,1728540,0.028809,1.72854,528.0
2077,1729372,0.028822867,1.729372,448.0
2078,1730204,0.028836733,1.730204,478.0
2079,1731040,0.028850667,1.73104,517.0
2080,1731872,0.028864533,1.731872,498.0
2081,1732704,0.0288784,1.732704,519.0
2082,1733540,0.028892333,1.73354,501.0
2083,1734372,0.0289062,1.734372,526.0
2084,1735204,0.028920067,1.735204,497.0
2085,1736040,0.028934,1.73604,512.0
2086,1736872,0.028947867,1.736872,524.0
2087,1737704,0.028961733,1.737704,475.0
2088,1738540,0.028975667,1.73854,502.0
2089,1739372,0.028989533,1.739372,482.0
2090,1740204,0.0290034,1.740204,551.0
2091,1741040,0.029017333,1.74104,556.0
2092,1741872,0.0290312,1.741872,461.0
2093,1742704,0.029045066,1.742704,508.0
2094,1743540,0.029059,1.74354,503.0
2095,1744372,0.029072866,1.744372,501.0
2096,1745204,0.029086733,1.745204,521.0
2097,1746040,0.029100666,1.74604,456.0
2098,1746872,0.029114533,1.746872,528.0
2099,1747708,0.029128466,1.747708,526.0
2100,1748540,0.029142333,1.74854,525.0
2101,1749372,0.0291562,1.749372,579.0
2102,1750208,0.029170133,1.750208,492.0
2103,1751040,0.029184,1.75104,505.0
2104,1751872,0.029197866,1.751872,505.0
2105,1752708,0.0292118,1.752708,514.0
2106,1753540,0.029225666,1.75354,528.0
2107,1754372,0.029239533,1.754372,475.0
2108,1755208,0.029253466,1.755208,493.0
2109,1756040,0.029267333,1.75604,530.0
2110,1756872,0.0292812,1.756872,535.0
2111,1757708,0.029295133,1.757708,541.0
2112,1758540,0.029309,1.75854,504.0
2113,1759372,0.029322866,1.759372,507.0
2114,1760208,0.0293368,1.760208,530.0
2115,1761040,0.029350666,1.76104,498.0
2116,1761872,0.029364534,1.761872,498.0
2117,1762708,0.029378466,1.762708,457.0
2118,1763540,0.029392334,1.76354,511.0
2119,1764372,0.0294062,1.764372,526.0
2120,1765208,0.029420134,1.765208,508.0
2121,1766040,0.029434,1.76604,559.0
2122,1766872,0.029447867,1.766872,478.0
2123,1767708,0.0294618,1.767708,528.0
2124,1768540,0.029475667,1.76854,543.0
2125,1769372,0.029489534,1.769372,502.0
2126,1770208,0.029503467,1.770208,534.0
2127,1771040,0.029517334,1.77104,466.0
2128,1771876,0.029531267,1.771876,500.0
2129,1772708,0.029545134,1.772708,521.0
2130,1773540,0.029559,1.77354,533.0
2131,1774376,0.029572934,1.774376,549.0
2132,1775208,0.0295868,1.775208,483.0
2133,1776040,0.029600667,1.77604,507.0
2134,1776876,0.0296146,1.776876,512.0
2135,1777708,0.029628467,1.777708,486.0
2136,1778540,0.029642334,1.77854,539.0
2137,1779376,0.029656267,1.779376,452.0
2138,1780208,0.029670134,1.780208,517.0
2139,1781040,0.029684,1.78104,535.0
2140,1781876,0.029697934,1.781876,557.0
2141,1782708,0.0297118,1.782708,559.0
2142,1783540,0.029725667,1.78354,505.0
2143,1784376,0.0297396,1.784376,535.0
2144,1785208,0.029753467,1.785208,499.0
2145,1786040,0.029767333,1.78604,513.0
2146,1786876,0.029781267,1.786876,488.0
2147,1787708,0.029795133,1.787708,487.0
2148,1788540,0.029809,1.78854,544.0
2149,1789376,0.029822933,1.789376,536.0
2150,1790208,0.0298368,1.790208,561.0
2151,1791040,0.029850667,1.79104,531.0
2152,1791876,0.0298646,1.791876,514.0
2153,1792708,0.029878467,1.792708,511.0
2154,1793540,0.029892333,1.79354,477.0
2155,1794376,0.029906267,1.794376,508.0
2156,1795208,0.029920133,1.795208,472.0
2157,1796040,0.029934,1.79604,498.0
2158,1796876,0.029947933,1.796876,496.0
2159,1797708,0.0299618,1.797708,518.0
2160,1798540,0.029975668,1.79854,557.0
2161,1799376,0.0299896,1.799376,516.0
2162,1800208,0.030003468,1.800208,535.0
2163,1801044,0.0300174,1.801044,512.0
2164,1801876,0.030031268,1.801876,489.0
2165,1802708,0.030045133,1.802708,496.0
2166,1803544,0.030059068,1.803544,475.0
2167,1804376,0.030072933,1.804376,521.0
2168,1805208,0.0300868,1.805208,499.0
2169,1806044,0.030100733,1.806044,549.0
2170,1806876,0.0301146,1.806876,560.0
2171,1807708,0.030128466,1.807708,527.0
2172,1808544,0.0301424,1.808544,528.0
2173,1809376,0.030156266,1.809376,480.0
2174,1810208,0.030170133,1.810208,506.0
2175,1811044,0.030184066,1.811044,507.0
2176,1811876,0.030197933,1.811876,504.0
2177,1812708,0.0302118,1.812708,503.0
2178,1813544,0.030225733,1.813544,502.0
2179,1814376,0.0302396,1.814376,524.0
2180,1815208,0.030253466,1.815208,520.0
2181,1816044,0.0302674,1.816044,528.0
2182,1816876,0.030281266,1.816876,522.0
2183,1817708,0.030295134,1.817708,518.0
2184,1818544,0.030309066,1.818544,473.0
2185,1819376,0.030322934,1.819376,486.0
2186,1820208,0.0303368,1.820208,495.0
2187,1821044,0.030350734,1.821044,518.0
2188,1821876,0.0303646,1.821876,552.0
2189,1822708,0.030378466,1.822708,491.0
2190,1823544,0.0303924,1.823544,525.0
2191,1824376,0.030406266,1.824376,525.0
2192,1825208,0.030420134,1.825208,546.0
2193,1826044,0.030434066,1.826044,541.0
2194,1826876,0.030447934,1.826876,477.0
2195,1827712,0.030461866,1.827712,487.0
2196,1828544,0.030475734,1.828544,478.0
2197,1829376,0.0304896,1.829376,537.0
2198,1830212,0.030503534,1.830212,519.0
2199,1831044,0.0305174,1.831044,510.0
2200,1831876,0.030531267,1.831876,540.0
2201,1832712,0.0305452,1.832712,521.0
2202,1833544,0.030559067,1.833544,524.0
2203,1834376,0.030572934,1.834376,482.0
2204,1835212,0.030586867,1.835212,486.0
2205,1836044,0.030600734,1.836044,486.0
2206,1836876,0.0306146,1.836876,497.0
2207,1837712,0.030628534,1.837712,523.0
2208,1838544,0.0306424,1.838544,495.0
2209,1839376,0.030656267,1.839376,562.0
2210,1840212,0.0306702,1.840212,504.0
2211,1841044,0.030684067,1.841044,538.0
2212,1841876,0.030697932,1.841876,534.0
2213,1842712,0.030711867,1.842712,499.0
2214,1843544,0.030725732,1.843544,538.0
2215,1844376,0.0307396,1.844376,460.0
2216,1845212,0.030753532,1.845212,504.0
2217,1846044,0.0307674,1.846044,517.0
2218,1846876,0.030781267,1.846876,540.0
2219,1847712,0.0307952,1.847712,562.0
2220,1848544,0.030809067,1.848544,498.0
2221,1849376,0.030822933,1.849376,521.0
2222,1850212,0.030836867,1.850212,500.0
2223,1851044,0.030850733,1.851044,517.0
2224,1851880,0.030864667,1.85188,515.0
2225,1852712,0.030878533,1.852712,481.0
2226,1853544,0.0308924,1.853544,512.0
2227,1854380,0.030906333,1.85438,509.0
2228,1855212,0.0309202,1.855212,551.0
2229,1856044,0.030934067,1.856044,540.0
2230,1856880,0.030948,1.85688,499.0
2231,1857712,0.030961867,1.857712,512.0
2232,1858544,0.030975733,1.858544,488.0
2233,1859380,0.030989667,1.85938,502.0
2234,1860212,0.031003533,1.860212,498.0
2235,1861044,0.0310174,1.861044,491.0
2236,1861880,0.031031333,1.86188,511.0
2237,1862712,0.0310452,1.862712,522.0
2238,1863544,0.031059066,1.863544,550.0
2239,1864380,0.031073,1.86438,534.0
2240,1865212,0.031086866,1.865212,515.0
2241,1866044,0.031100733,1.866044,495.0
2242,1866880,0.031114666,1.86688,498.0
2243,1867712,0.031128533,1.867712,486.0
2244,1868544,0.0311424,1.868544,469.0
2245,1869380,0.031156333,1.86938,494.0
2246,1870212,0.0311702,1.870212,503.0
2247,1871044,0.031184066,1.871044,517.0
2248,1871880,0.031198,1.87188,541.0
2249,1872712,0.031211866,1.872712,498.0
2250,1873544,0.031225733,1.873544,539.0
2251,1874380,0.031239666,1.87438,518.0
2252,1875212,0.03125353,1.875212,521.0
2253,1876044,0.0312674,1.876044,517.0
2254,1876880,0.031281333,1.87688,506.0
2255,1877712,0.0312952,1.877712,519.0
2256,1878544,0.03130907,1.878544,478.0
2257,1879380,0.031323,1.87938,512.0
2258,1880212,0.031336866,1.880212,511.0
2259,1881048,0.0313508,1.881048,525.0
2260,1881880,0.03136467,1.88188,550.0
2261,1882712,0.031378534,1.882712,492.0
2262,1883548,0.031392466,1.883548,501.0
2263,1884380,0.03140633,1.88438,513.0
2264,1885212,0.0314202,1.885212,526.0
2265,1886048,0.031434134,1.886048,534.0
2266,1886880,0.031448,1.88688,497.0
2267,1887712,0.03146187,1.887712,521.0
2268,1888548,0.0314758,1.888548,515.0
2269,1889380,0.031489667,1.88938,528.0
2270,1890212,0.031503532,1.890212,524.0
2271,1891048,0.03151747,1.891048,491.0
2272,1891880,0.031531334,1.89188,475.0
2273,1892712,0.0315452,1.892712,515.0
2274,1893548,0.031559132,1.893548,509.0
2275,1894380,0.031573,1.89438,512.0
2276,1895212,0.031586867,1.895212,541.0
2277,1896048,0.0316008,1.896048,518.0
2278,1896880,0.031614665,1.89688,547.0
2279,1897712,0.031628534,1.897712,559.0
2280,1898548,0.031642467,1.898548,510.0
2281,1899380,0.031656332,1.89938,495.0
2282,1900212,0.0316702,1.900212,478.0
2283,1901048,0.031684134,1.901048,502.0
2284,1901880,0.031698,1.90188,484.0
2285,1902712,0.031711865,1.902712,489.0
2286,1903548,0.0317258,1.903548,528.0
2287,1904380,0.031739667,1.90438,510.0
2288,1905216,0.0317536,1.905216,543.0
2289,1906048,0.031767465,1.906048,553.0
2290,1906880,0.031781334,1.90688,540.0
2291,1907720,0.031795334,1.90772,532.0
2292,1908548,0.031809133,1.908548,523.0
2293,1909380,0.031823,1.90938,522.0
2294,1910216,0.031836934,1.910216,481.0
2295,1911048,0.0318508,1.911048,500.0
2296,1911880,0.031864665,1.91188,493.0
2297,1912716,0.0318786,1.912716,498.0
2298,1913548,0.031892467,1.913548,544.0
2299,1914380,0.031906333,1.91438,512.0
2300,1915216,0.031920265,1.915216,491.0
2301,1916048,0.031934135,1.916048,488.0
2302,1916880,0.031948,1.91688,555.0
2303,1917716,0.031961933,1.917716,541.0
2304,1918548,0.0319758,1.918548,494.0
2305,1919380,0.031989668,1.91938,508.0
2306,1920216,0.0320036,1.920216,525.0
2307,1921048,0.032017466,1.921048,547.0
2308,1921880,0.032031335,1.92188,541.0
2309,1922716,0.032045268,1.922716,499.0
2310,1923548,0.032059133,1.923548,472.0
2311,1924380,0.032073,1.92438,499.0
2312,1925216,0.032086935,1.925216,495.0
2313,1926048,0.0321008,1.926048,484.0
2314,1926880,0.032114666,1.92688,494.0
2315,1927716,0.0321286,1.927716,513.0
2316,1928548,0.032142468,1.928548,539.0
2317,1929380,0.032156333,1.92938,566.0
2318,1930216,0.032170266,1.930216,510.0
2319,1931048,0.032184135,1.931048,515.0
2320,1931880,0.032198,1.93188,524.0
2321,1932716,0.032211933,1.932716,521.0
2322,1933548,0.0322258,1.933548,505.0
2323,1934384,0.032239735,1.934384,436.0
2324,1935216,0.0322536,1.935216,430.0
2325,1936048,0.032267466,1.936048,479.0
2326,1936884,0.0322814,1.936884,545.0
2327,1937716,0.032295268,1.937716,553.0
2328,1938548,0.032309134,1.938548,550.0
2329,1939384,0.032323066,1.939384,520.0
2330,1940216,0.03233693,1.940216,531.0
2331,1941048,0.0323508,1.941048,539.0
2332,1941884,0.032364734,1.941884,515.0
2333,1942716,0.0323786,1.942716,498.0
2334,1943548,0.03239247,1.943548,513.0
2335,1944384,0.0324064,1.944384,466.0
2336,1945216,0.032420266,1.945216,520.0
2337,1946048,0.032434132,1.946048,510.0
2338,1946884,0.03244807,1.946884,519.0
2339,1947716,0.032461934,1.947716,516.0
2340,1948548,0.0324758,1.948548,531.0
2341,1949384,0.032489732,1.949384,516.0
2342,1950216,0.0325036,1.950216,516.0
2343,1951048,0.032517467,1.951048,552.0
2344,1951884,0.0325314,1.951884,510.0
2345,1952716,0.032545265,1.952716,515.0
2346,1953548,0.032559134,1.953548,519.0
2347,1954384,0.032573067,1.954384,493.0
2348,1955216,0.032586932,1.955216,495.0
2349,1956048,0.0326008,1.956048,489.0
2350,1956884,0.032614734,1.956884,482.0
2351,1957716,0.0326286,1.957716,517.0
2352,1958548,0.032642465,1.958548,495.0
2353,1959384,0.0326564,1.959384,535.0
2354,1960216,0.032670267,1.960216,525.0
2355,1961052,0.0326842,1.961052,505.0
2356,1961884,0.032698065,1.961884,500.0
2357,1962716,0.032711934,1.962716,548.0
2358,1963552,0.032725867,1.963552,520.0
2359,1964384,0.032739732,1.964384,502.0
2360,1965216,0.0327536,1.965216,486.0
2361,1966052,0.032767534,1.966052,490.0
2362,1966884,0.0327814,1.966884,494.0
2363,1967716,0.032795265,1.967716,509.0
2364,1968552,0.0328092,1.968552,501.0
2365,1969384,0.032823067,1.969384,527.0
2366,1970216,0.032836933,1.970216,522.0
2367,1971052,0.032850865,1.971052,508.0
2368,1971884,0.032864735,1.971884,515.0
2369,1972716,0.0328786,1.972716,538.0
2370,1973552,0.032892533,1.973552,519.0
2371,1974384,0.0329064,1.974384,541.0
2372,1975216,0.032920267,1.975216,539.0
2373,1976052,0.0329342,1.976052,505.0
2374,1976884,0.032948066,1.976884,498.0
2375,1977716,0.032961935,1.977716,519.0
2376,1978552,0.032975867,1.978552,524.0
2377,1979384,0.032989733,1.979384,508.0
2378,1980216,0.0330036,1.980216,501.0
2379,1981052,0.033017535,1.981052,509.0
2380,1981884,0.0330314,1.981884,492.0
2381,1982716,0.033045266,1.982716,501.0
2382,1983552,0.0330592,1.983552,522.0
2383,1984384,0.033073068,1.984384,534.0
2384,1985216,0.033086933,1.985216,540.0
2385,1986052,0.033100866,1.986052,523.0
2386,1986884,0.033114735,1.986884,501.0
2387,1987720,0.033128668,1.98772,487.0
2388,1988552,0.033142533,1.988552,523.0
2389,1989384,0.0331564,1.989384,489.0
2390,1990220,0.033170335,1.99022,502.0
2391,1991052,0.0331842,1.991052,506.0
2392,1991884,0.033198066,1.991884,513.0
2393,1992720,0.033212,1.99272,513.0
2394,1993552,0.033225868,1.993552,529.0
2395,1994384,0.033239733,1.994384,523.0
2396,1995220,0.033253666,1.99522,543.0
2397,1996052,0.03326753,1.996052,521.0
2398,1996884,0.0332814,1.996884,493.0
2399,1997720,0.033295333,1.99772,465.0
2400,1998552,0.0333092,1.998552,482.0
2401,1999384,0.03332307,1.999384,489.0
2402,2000220,0.033337,2.00022,530.0
2403,2001052,0.033350866,2.001052,518.0
2404,2001884,0.03336473,2.001884,518.0
2405,2002720,0.033378668,2.00272,527.0
2406,2003552,0.033392534,2.003552,514.0
2407,2004384,0.0334064,2.004384,504.0
2408,2005220,0.03342033,2.00522,527.0
2409,2006052,0.0334342,2.006052,504.0
2410,2006884,0.033448067,2.006884,539.0
2411,2007720,0.033462,2.00772,517.0
2412,2008552,0.03347587,2.008552,517.0
2413,2009384,0.033489734,2.009384,517.0
2414,2010220,0.033503667,2.01022,496.0
2415,2011052,0.033517532,2.011052,512.0
2416,2011884,0.0335314,2.011884,535.0
2417,2012720,0.033545334,2.01272,529.0
2418,2013552,0.0335592,2.013552,496.0
2419,2014388,0.033573132,2.014388,500.0
2420,2015220,0.033587,2.01522,512.0
2421,2016052,0.033600867,2.016052,514.0
2422,2016888,0.0336148,2.016888,520.0
2423,2017720,0.033628665,2.01772,547.0
2424,2018552,0.033642534,2.018552,541.0
2425,2019388,0.033656467,2.019388,526.0
2426,2020220,0.033670332,2.02022,488.0
2427,2021052,0.0336842,2.021052,489.0
2428,2021888,0.033698134,2.021888,456.0
2429,2022720,0.033712,2.02272,497.0
2430,2023552,0.033725865,2.023552,513.0
2431,2024388,0.0337398,2.024388,516.0
2432,2025220,0.033753667,2.02522,504.0
2433,2026052,0.033767533,2.026052,511.0
2434,2026888,0.033781465,2.026888,532.0
2435,2027720,0.033795334,2.02772,525.0
2436,2028552,0.0338092,2.028552,514.0
2437,2029388,0.033823133,2.029388,495.0
2438,2030220,0.033837,2.03022,484.0
2439,2031052,0.033850867,2.031052,483.0
2440,2031888,0.0338648,2.031888,483.0
2441,2032720,0.033878665,2.03272,512.0
2442,2033552,0.033892535,2.033552,524.0
2443,2034388,0.033906467,2.034388,504.0
2444,2035220,0.033920333,2.03522,531.0
2445,2036052,0.0339342,2.036052,545.0
2446,2036888,0.033948135,2.036888,515.0
2447,2037720,0.033962,2.03772,483.0
2448,2038556,0.033975933,2.038556,489.0
2449,2039388,0.0339898,2.039388,531.0
2450,2040220,0.034003668,2.04022,527.0
2451,2041056,0.0340176,2.041056,534.0
2452,2041888,0.034031466,2.041888,542.0
2453,2042720,0.034045335,2.04272,548.0
2454,2043556,0.034059267,2.043556,516.0
2455,2044388,0.034073133,2.044388,519.0
2456,2045220,0.034087,2.04522,522.0
2457,2046056,0.034100935,2.046056,472.0
2458,2046888,0.0341148,2.046888,501.0
2459,2047720,0.034128666,2.04772,517.0
2460,2048556,0.0341426,2.048556,533.0
2461,2049388,0.034156468,2.049388,532.0
2462,2050220,0.034170333,2.05022,544.0
2463,2051056,0.034184266,2.051056,543.0
2464,2051888,0.034198135,2.051888,502.0
2465,2052720,0.034212,2.05272,503.0
2466,2053556,0.034225933,2.053556,505.0
2467,2054388,0.0342398,2.054388,520.0
2468,2055220,0.034253668,2.05522,487.0
2469,2056056,0.0342676,2.056056,499.0
2470,2056888,0.034281466,2.056888,476.0
2471,2057720,0.03429533,2.05772,512.0
2472,2058556,0.034309268,2.058556,539.0
2473,2059388,0.034323134,2.059388,535.0
2474,2060220,0.034337,2.06022,540.0
2475,2061056,0.03435093,2.061056,534.0
2476,2061888,0.0343648,2.061888,530.0
2477,2062720,0.034378666,2.06272,496.0
2478,2063556,0.0343926,2.063556,507.0
2479,2064392,0.03440653,2.064392,466.0
2480,2065220,0.034420334,2.06522,510.0
2481,2066056,0.034434266,2.066056,532.0
2482,2066888,0.034448132,2.066888,531.0
2483,2067724,0.03446207,2.067724,523.0
2484,2068556,0.034475934,2.068556,540.0
2485,2069388,0.0344898,2.069388,501.0
2486,2070224,0.034503732,2.070224,500.0
2487,2071056,0.0345176,2.071056,501.0
2488,2071888,0.034531467,2.071888,546.0
2489,2072724,0.0345454,2.072724,533.0
2490,2073556,0.03455927,2.073556,546.0
2491,2074388,0.034573134,2.074388,565.0
2492,2075224,0.034587067,2.075224,556.0
2493,2076056,0.034600932,2.076056,530.0
2494,2076888,0.0346148,2.076888,533.0
2495,2077724,0.034628734,2.077724,502.0
2496,2078556,0.0346426,2.078556,486.0
2497,2079388,0.034656465,2.079388,492.0
2498,2080224,0.0346704,2.080224,491.0
2499,2081056,0.034684267,2.081056,489.0
2500,2081888,0.034698132,2.081888,485.0
2501,2082724,0.034712065,2.082724,486.0
2502,2083556,0.034725934,2.083556,495.0
2503,2084388,0.0347398,2.084388,508.0
2504,2085224,0.034753732,2.085224,486.0
2505,2086056,0.0347676,2.086056,488.0
2506,2086888,0.034781467,2.086888,488.0
2507,2087724,0.0347954,2.087724,506.0
2508,2088556,0.034809265,2.088556,574.0
2509,2089388,0.034823135,2.089388,553.0
2510,2090224,0.034837067,2.090224,576.0
2511,2091056,0.034850933,2.091056,562.0
2512,2091888,0.0348648,2.091888,539.0
2513,2092724,0.034878734,2.092724,517.0
2514,2093556,0.0348926,2.093556,532.0
2515,2094392,0.034906533,2.094392,520.0
2516,2095224,0.0349204,2.095224,497.0
2517,2096056,0.034934267,2.096056,483.0
2518,2096892,0.0349482,2.096892,487.0
2519,2097724,0.034962066,2.097724,499.0
2520,2098556,0.034975935,2.098556,502.0
2521,2099392,0.034989867,2.099392,495.0
2522,2100224,0.035003733,2.100224,523.0
2523,2101056,0.0350176,2.101056,497.0
2524,2101892,0.035031535,2.101892,492.0
2525,2102724,0.0350454,2.102724,489.0
2526,2103556,0.035059266,2.103556,475.0
2527,2104392,0.0350732,2.104392,501.0
2528,2105224,0.035087068,2.105224,512.0
2529,2106056,0.035100933,2.106056,541.0
2530,2106892,0.035114866,2.106892,540.0
2531,2107724,0.035128735,2.107724,558.0
2532,2108556,0.0351426,2.108556,580.0
2533,2109392,0.035156533,2.109392,531.0
2534,2110224,0.0351704,2.110224,514.0
2535,2111056,0.035184268,2.111056,517.0
2536,2111892,0.0351982,2.111892,507.0
2537,2112724,0.035212066,2.112724,502.0
2538,2113556,0.03522593,2.113556,532.0
2539,2114392,0.035239868,2.114392,550.0
2540,2115224,0.035253733,2.115224,553.0
2541,2116056,0.0352676,2.116056,513.0
2542,2116892,0.03528153,2.116892,556.0
2543,2117724,0.0352954,2.117724,542.0
2544,2118556,0.035309266,2.118556,505.0
2545,2119392,0.0353232,2.119392,466.0
2546,2120224,0.03533707,2.120224,477.0
2547,2121060,0.035351,2.12106,472.0
2548,2121892,0.035364866,2.121892,483.0
2549,2122724,0.03537873,2.122724,522.0
2550,2123560,0.035392668,2.12356,500.0
2551,2124392,0.035406534,2.124392,514.0
2552,2125224,0.0354204,2.125224,480.0
2553,2126060,0.03543433,2.12606,491.0
2554,2126892,0.0354482,2.126892,507.0
2555,2127724,0.035462067,2.127724,481.0
2556,2128560,0.035476,2.12856,525.0
2557,2129392,0.03548987,2.129392,472.0
2558,2130224,0.035503734,2.130224,511.0
2559,2131060,0.035517666,2.13106,540.0
2560,2131892,0.035531532,2.131892,541.0
2561,2132724,0.0355454,2.132724,576.0
2562,2133560,0.035559334,2.13356,532.0
2563,2134392,0.0355732,2.134392,564.0
2564,2135224,0.035587065,2.135224,541.0
2565,2136060,0.035601,2.13606,519.0
2566,2136892,0.035614867,2.136892,526.0
2567,2137724,0.035628732,2.137724,512.0
2568,2138560,0.035642665,2.13856,526.0
2569,2139392,0.035656534,2.139392,535.0
2570,2140224,0.0356704,2.140224,551.0
2571,2141060,0.035684332,2.14106,548.0
2572,2141892,0.0356982,2.141892,473.0
2573,2142724,0.035712067,2.142724,499.0
2574,2143560,0.035726,2.14356,489.0
2575,2144392,0.035739865,2.144392,489.0
2576,2145224,0.035753734,2.145224,488.0
2577,2146060,0.035767667,2.14606,469.0
2578,2146892,0.035781533,2.146892,517.0
2579,2147728,0.035795465,2.147728,499.0
2580,2148560,0.035809334,2.14856,523.0
2581,2149392,0.0358232,2.149392,534.0
2582,2150228,0.035837132,2.150228,512.0
2583,2151060,0.035851,2.15106,494.0
2584,2151892,0.035864867,2.151892,461.0
2585,2152728,0.0358788,2.152728,484.0
2586,2153560,0.035892665,2.15356,495.0
2587,2154392,0.035906535,2.154392,508.0
2588,2155228,0.035920467,2.155228,520.0
2589,2156060,0.035934333,2.15606,521.0
2590,2156892,0.0359482,2.156892,547.0
2591,2157728,0.035962135,2.157728,532.0
2592,2158560,0.035976,2.15856,539.0
2593,2159392,0.035989866,2.159392,528.0
2594,2160228,0.0360038,2.160228,542.0
2595,2161060,0.036017668,2.16106,549.0
2596,2161892,0.036031533,2.161892,544.0
2597,2162728,0.036045466,2.162728,544.0
2598,2163560,0.036059335,2.16356,531.0
2599,2164392,0.0360732,2.164392,512.0
2600,2165228,0.036087133,2.165228,513.0
2601,2166060,0.036101,2.16606,515.0
2602,2166892,0.036114868,2.166892,515.0
2603,2167728,0.0361288,2.167728,476.0
2604,2168560,0.036142666,2.16856,488.0
2605,2169392,0.036156535,2.169392,490.0
2606,2170228,0.036170468,2.170228,508.0
2607,2171060,0.036184333,2.17106,501.0
2608,2171892,0.0361982,2.171892,488.0
2609,2172728,0.036212135,2.172728,512.0
2610,2173560,0.036226,2.17356,491.0
2611,2174396,0.036239933,2.174396,502.0
2612,2175228,0.0362538,2.175228,492.0
2613,2176060,0.036267668,2.17606,504.0
2614,2176896,0.0362816,2.176896,487.0
2615,2177728,0.036295466,2.177728,486.0
2616,2178560,0.03630933,2.17856,513.0
2617,2179396,0.036323268,2.179396,505.0
2618,2180228,0.036337133,2.180228,543.0
2619,2181060,0.036351,2.18106,537.0
2620,2181896,0.03636493,2.181896,550.0
2621,2182728,0.0363788,2.182728,557.0
2622,2183560,0.036392666,2.18356,553.0
2623,2184396,0.0364066,2.184396,557.0
2624,2185228,0.03642047,2.185228,507.0
2625,2186060,0.036434334,2.18606,527.0
2626,2186896,0.036448266,2.186896,539.0
2627,2187728,0.036462132,2.187728,533.0
2628,2188560,0.036476,2.18856,521.0
2629,2189396,0.036489934,2.189396,493.0
2630,2190228,0.0365038,2.190228,508.0
2631,2191060,0.03651767,2.19106,505.0
2632,2191896,0.0365316,2.191896,507.0
2633,2192728,0.036545467,2.192728,498.0
2634,2193560,0.036559332,2.19356,463.0
2635,2194396,0.03657327,2.194396,475.0
2636,2195228,0.036587134,2.195228,516.0
2637,2196060,0.036601,2.19606,541.0
2638,2196896,0.036614932,2.196896,545.0
2639,2197728,0.0366288,2.197728,508.0
2640,2198564,0.036642734,2.198564,523.0
2641,2199396,0.0366566,2.199396,520.0
2642,2200228,0.036670465,2.200228,500.0
2643,2201064,0.0366844,2.201064,509.0
2644,2201896,0.036698267,2.201896,481.0
2645,2202728,0.036712132,2.202728,501.0
2646,2203564,0.036726065,2.203564,524.0
2647,2204396,0.036739934,2.204396,515.0
2648,2205228,0.0367538,2.205228,543.0
2649,2206064,0.036767732,2.206064,494.0
2650,2206896,0.0367816,2.206896,525.0
2651,2207728,0.036795467,2.207728,560.0
2652,2208564,0.0368094,2.208564,559.0
2653,2209396,0.036823265,2.209396,536.0
2654,2210228,0.036837135,2.210228,516.0
2655,2211064,0.036851067,2.211064,531.0
2656,2211896,0.036864933,2.211896,542.0
2657,2212728,0.0368788,2.212728,523.0
2658,2213564,0.036892734,2.213564,538.0
2659,2214396,0.0369066,2.214396,535.0
2660,2215228,0.036920466,2.215228,524.0
2661,2216064,0.0369344,2.216064,526.0
2662,2216896,0.036948267,2.216896,483.0
2663,2217728,0.036962133,2.217728,475.0
2664,2218564,0.036976065,2.218564,476.0
2665,2219396,0.036989935,2.219396,499.0
2666,2220228,0.0370038,2.220228,506.0
2667,2221064,0.037017733,2.221064,531.0
2668,2221896,0.0370316,2.221896,482.0
2669,2222728,0.037045468,2.222728,499.0
2670,2223564,0.0370594,2.223564,507.0
2671,2224396,0.037073266,2.224396,496.0
2672,2225232,0.0370872,2.225232,517.0
2673,2226064,0.037101068,2.226064,511.0
2674,2226896,0.037114933,2.226896,508.0
2675,2227732,0.037128866,2.227732,520.0
2676,2228564,0.037142735,2.228564,537.0
2677,2229396,0.0371566,2.229396,522.0
2678,2230232,0.037170533,2.230232,528.0
2679,2231064,0.0371844,2.231064,527.0
2680,2231896,0.037198268,2.231896,525.0
2681,2232732,0.0372122,2.232732,532.0
2682,2233564,0.037226066,2.233564,509.0
2683,2234396,0.03723993,2.234396,507.0
2684,2235232,0.037253868,2.235232,509.0
2685,2236064,0.037267733,2.236064,504.0
2686,2236896,0.0372816,2.236896,507.0
2687,2237732,0.03729553,2.237732,507.0
2688,2238564,0.0373094,2.238564,518.0
2689,2239396,0.037323266,2.239396,527.0
2690,2240232,0.0373372,2.240232,526.0
2691,2241064,0.037351068,2.241064,514.0
2692,2241896,0.037364934,2.241896,512.0
2693,2242732,0.037378866,2.242732,530.0
2694,2243564,0.03739273,2.243564,514.0
2695,2244396,0.0374066,2.244396,506.0
2696,2245232,0.037420534,2.245232,490.0
2697,2246064,0.0374344,2.246064,487.0
2698,2246896,0.03744827,2.246896,491.0
2699,2247732,0.0374622,2.247732,536.0
2700,2248564,0.037476066,2.248564,486.0
2701,2249396,0.037489932,2.249396,504.0
2702,2250232,0.03750387,2.250232,514.0
2703,2251064,0.037517734,2.251064,512.0
2704,2251896,0.0375316,2.251896,479.0
2705,2252732,0.037545532,2.252732,509.0
2706,2253564,0.0375594,2.253564,506.0
2707,2254400,0.037573334,2.2544,488.0
2708,2255232,0.0375872,2.255232,532.0
2709,2256064,0.037601065,2.256064,516.0
2710,2256904,0.03761507,2.256904,518.0
2711,2257732,0.037628867,2.257732,536.0
2712,2258564,0.037642732,2.258564,531.0
2713,2259400,0.037656665,2.2594,495.0
2714,2260232,0.037670534,2.260232,523.0
2715,2261064,0.0376844,2.261064,538.0
2716,2261900,0.037698332,2.2619,518.0
2717,2262732,0.0377122,2.262732,539.0
2718,2263564,0.037726067,2.263564,539.0
2719,2264400,0.03774,2.2644,536.0
2720,2265232,0.037753865,2.265232,529.0
2721,2266064,0.037767734,2.266064,539.0
2722,2266900,0.037781667,2.2669,458.0
2723,2267732,0.037795532,2.267732,476.0
2724,2268564,0.0378094,2.268564,489.0
2725,2269400,0.037823334,2.2694,523.0
2726,2270232,0.0378372,2.270232,537.0
2727,2271064,0.037851065,2.271064,519.0
2728,2271900,0.037865,2.2719,501.0
2729,2272732,0.037878867,2.272732,468.0
2730,2273564,0.037892733,2.273564,483.0
2731,2274400,0.037906665,2.2744,468.0
2732,2275232,0.037920535,2.275232,527.0
2733,2276064,0.0379344,2.276064,550.0
2734,2276900,0.037948333,2.2769,527.0
2735,2277732,0.0379622,2.277732,535.0
2736,2278568,0.037976135,2.278568,518.0
2737,2279400,0.03799,2.2794,533.0
2738,2280232,0.038003866,2.280232,524.0
2739,2281068,0.0380178,2.281068,520.0
2740,2281900,0.038031667,2.2819,498.0
2741,2282732,0.038045533,2.282732,492.0
2742,2283568,0.038059466,2.283568,508.0
2743,2284400,0.038073335,2.2844,520.0
2744,2285232,0.0380872,2.285232,532.0
2745,2286068,0.038101133,2.286068,493.0
2746,2286900,0.038115,2.2869,523.0
2747,2287732,0.038128868,2.287732,520.0
2748,2288568,0.0381428,2.288568,515.0
2749,2289400,0.038156666,2.2894,541.0
2750,2290232,0.038170535,2.290232,545.0
2751,2291068,0.038184468,2.291068,534.0
2752,2291900,0.038198333,2.2919,519.0
2753,2292732,0.0382122,2.292732,507.0
2754,2293568,0.038226135,2.293568,513.0
2755,2294400,0.03824,2.2944,484.0
2756,2295232,0.038253866,2.295232,467.0
2757,2296068,0.0382678,2.296068,495.0
2758,2296900,0.038281668,2.2969,527.0
2759,2297732,0.038295534,2.297732,516.0
2760,2298568,0.038309466,2.298568,536.0
2761,2299400,0.03832333,2.2994,529.0
2762,2300232,0.0383372,2.300232,523.0
2763,2301068,0.038351133,2.301068,545.0
2764,2301900,0.038365,2.3019,543.0
2765,2302732,0.03837887,2.302732,541.0
2766,2303568,0.0383928,2.303568,545.0
2767,2304400,0.038406666,2.3044,521.0
2768,2305232,0.038420532,2.305232,523.0
2769,2306068,0.03843447,2.306068,525.0
2770,2306900,0.038448334,2.3069,510.0
2771,2307736,0.038462266,2.307736,469.0
2772,2308568,0.03847613,2.308568,501.0
2773,2309400,0.03849,2.3094,470.0
2774,2310236,0.038503934,2.310236,476.0
2775,2311068,0.0385178,2.311068,507.0
2776,2311900,0.03853167,2.3119,509.0
2777,2312736,0.0385456,2.312736,512.0
2778,2313568,0.038559467,2.313568,504.0
2779,2314400,0.038573332,2.3144,525.0
2780,2315236,0.03858727,2.315236,542.0
2781,2316068,0.038601134,2.316068,525.0
2782,2316900,0.038615,2.3169,534.0
2783,2317736,0.038628932,2.317736,532.0
2784,2318568,0.0386428,2.318568,519.0
2785,2319400,0.038656667,2.3194,526.0
2786,2320236,0.0386706,2.320236,504.0
2787,2321068,0.038684465,2.321068,467.0
2788,2321900,0.038698334,2.3219,447.0
2789,2322736,0.038712267,2.322736,486.0
2790,2323568,0.038726132,2.323568,506.0
2791,2324400,0.03874,2.3244,516.0
2792,2325236,0.038753934,2.325236,507.0
2793,2326068,0.0387678,2.326068,501.0
2794,2326900,0.038781665,2.3269,513.0
2795,2327736,0.0387956,2.327736,531.0
2796,2328568,0.038809467,2.328568,549.0
2797,2329400,0.038823333,2.3294,544.0
2798,2330236,0.038837265,2.330236,538.0
2799,2331068,0.038851134,2.331068,535.0
2800,2331904,0.038865067,2.331904,543.0
2801,2332736,0.038878933,2.332736,552.0
2802,2333568,0.0388928,2.333568,527.0
2803,2334404,0.038906734,2.334404,519.0
2804,2335236,0.0389206,2.335236,524.0
2805,2336068,0.038934465,2.336068,538.0
2806,2336904,0.0389484,2.336904,526.0
2807,2337736,0.038962267,2.337736,526.0
2808,2338568,0.038976133,2.338568,527.0
2809,2339404,0.038990065,2.339404,499.0
2810,2340236,0.039003935,2.340236,503.0
2811,2341068,0.0390178,2.341068,481.0
2812,2341904,0.039031733,2.341904,467.0
2813,2342736,0.0390456,2.342736,476.0
2814,2343568,0.039059468,2.343568,505.0
2815,2344404,0.0390734,2.344404,465.0
2816,2345236,0.039087266,2.345236,471.0
2817,2346068,0.039101135,2.346068,505.0
2818,2346904,0.039115068,2.346904,505.0
2819,2347736,0.039128933,2.347736,498.0
2820,2348568,0.0391428,2.348568,496.0
2821,2349404,0.039156735,2.349404,486.0
2822,2350236,0.0391706,2.350236,493.0
2823,2351068,0.039184466,2.351068,542.0
2824,2351904,0.0391984,2.351904,532.0
2825,2352736,0.039212268,2.352736,545.0
2826,2353568,0.039226133,2.353568,528.0
2827,2354404,0.039240066,2.354404,517.0
2828,2355236,0.03925393,2.355236,545.0
2829,2356068,0.0392678,2.356068,546.0
2830,2356904,0.039281733,2.356904,540.0
2831,2357736,0.0392956,2.357736,546.0
2832,2358568,0.039309468,2.358568,543.0
2833,2359404,0.0393234,2.359404,495.0
2834,2360236,0.039337266,2.360236,516.0
2835,2361072,0.0393512,2.361072,504.0
2836,2361904,0.039365068,2.361904,527.0
2837,2362736,0.039378934,2.362736,541.0
2838,2363572,0.039392866,2.363572,521.0
2839,2364404,0.03940673,2.364404,532.0
2840,2365236,0.0394206,2.365236,530.0
2841,2366072,0.039434534,2.366072,532.0
2842,2366904,0.0394484,2.366904,531.0
2843,2367736,0.03946227,2.367736,494.0
2844,2368572,0.0394762,2.368572,498.0
2845,2369404,0.039490066,2.369404,492.0
2846,2370236,0.039503932,2.370236,510.0
2847,2371072,0.03951787,2.371072,489.0
2848,2371904,0.039531734,2.371904,500.0
2849,2372736,0.0395456,2.372736,501.0
2850,2373572,0.039559532,2.373572,512.0
2851,2374404,0.0395734,2.374404,502.0
2852,2375236,0.039587267,2.375236,492.0
2853,2376072,0.0396012,2.376072,497.0
2854,2376904,0.039615065,2.376904,495.0
2855,2377736,0.039628934,2.377736,516.0
2856,2378572,0.039642867,2.378572,504.0
2857,2379404,0.039656732,2.379404,493.0
2858,2380236,0.0396706,2.380236,500.0
2859,2381072,0.039684534,2.381072,511.0
2860,2381904,0.0396984,2.381904,514.0
2861,2382736,0.039712265,2.382736,514.0
2862,2383572,0.0397262,2.383572,521.0
2863,2384404,0.039740067,2.384404,534.0
2864,2385236,0.039753933,2.385236,547.0
2865,2386072,0.039767865,2.386072,546.0
2866,2386904,0.039781734,2.386904,526.0
2867,2387740,0.039795667,2.38774,543.0
2868,2388572,0.039809532,2.388572,527.0
2869,2389404,0.0398234,2.389404,519.0
2870,2390240,0.039837334,2.39024,533.0
2871,2391072,0.0398512,2.391072,533.0
2872,2391904,0.039865065,2.391904,512.0
2873,2392740,0.039879,2.39274,528.0
2874,2393572,0.039892867,2.393572,518.0
2875,2394404,0.039906733,2.394404,515.0
2876,2395240,0.039920665,2.39524,520.0
2877,2396072,0.039934535,2.396072,522.0
2878,2396904,0.0399484,2.396904,497.0
2879,2397740,0.039962333,2.39774,510.0
2880,2398572,0.0399762,2.398572,506.0
2881,2399404,0.039990067,2.399404,490.0
2882,2400240,0.040004,2.40024,504.0
2883,2401072,0.040017866,2.401072,480.0
2884,2401904,0.040031735,2.401904,495.0
2885,2402740,0.040045667,2.40274,495.0
2886,2403572,0.040059533,2.403572,537.0
2887,2404404,0.0400734,2.404404,498.0
2888,2405240,0.040087335,2.40524,492.0
2889,2406072,0.0401012,2.406072,488.0
2890,2406904,0.040115066,2.406904,492.0
2891,2407740,0.040129,2.40774,494.0
2892,2408572,0.040142868,2.408572,504.0
2893,2409404,0.040156733,2.409404,493.0
2894,2410240,0.040170666,2.41024,522.0
2895,2411072,0.040184535,2.411072,553.0
2896,2411908,0.040198468,2.411908,537.0
2897,2412740,0.040212333,2.41274,533.0
2898,2413576,0.040226266,2.413576,537.0
2899,2414408,0.040240135,2.414408,522.0
2900,2415240,0.040254,2.41524,521.0
2901,2416072,0.040267866,2.416072,517.0
2902,2416908,0.0402818,2.416908,503.0
2903,2417740,0.040295668,2.41774,528.0
2904,2418572,0.040309533,2.418572,529.0
2905,2419408,0.040323466,2.419408,510.0
2906,2420240,0.04033733,2.42024,509.0
2907,2421072,0.0403512,2.421072,501.0
2908,2421908,0.040365133,2.421908,498.0
2909,2422740,0.040379,2.42274,514.0
2910,2423572,0.04039287,2.423572,519.0
2911,2424408,0.0404068,2.424408,508.0
2912,2425240,0.040420666,2.42524,512.0
2913,2426072,0.040434532,2.426072,474.0
2914,2426908,0.04044847,2.426908,508.0
2915,2427740,0.040462334,2.42774,496.0
2916,2428572,0.0404762,2.428572,524.0
2917,2429408,0.04049013,2.429408,536.0
2918,2430240,0.040504,2.43024,550.0
2919,2431072,0.040517867,2.431072,521.0
2920,2431908,0.0405318,2.431908,496.0
2921,2432740,0.04054567,2.43274,525.0
2922,2433572,0.040559534,2.433572,478.0
2923,2434408,0.040573467,2.434408,530.0
2924,2435240,0.040587332,2.43524,492.0
2925,2436072,0.0406012,2.436072,524.0
2926,2436908,0.040615134,2.436908,528.0
2927,2437740,0.040629,2.43774,522.0
2928,2438572,0.040642865,2.438572,517.0
2929,2439408,0.0406568,2.439408,468.0
2930,2440240,0.040670667,2.44024,472.0
2931,2441076,0.0406846,2.441076,469.0
2932,2441908,0.040698465,2.441908,508.0
2933,2442740,0.040712334,2.44274,527.0
2934,2443576,0.040726267,2.443576,505.0
2935,2444408,0.040740132,2.444408,526.0
2936,2445240,0.040754,2.44524,526.0
2937,2446076,0.040767934,2.446076,534.0
2938,2446908,0.0407818,2.446908,484.0
2939,2447740,0.040795665,2.44774,495.0
2940,2448576,0.0408096,2.448576,542.0
2941,2449408,0.040823467,2.449408,528.0
2942,2450240,0.040837333,2.45024,543.0
2943,2451076,0.040851265,2.451076,492.0
2944,2451908,0.040865134,2.451908,511.0
2945,2452740,0.040879,2.45274,529.0
2946,2453576,0.040892933,2.453576,534.0
2947,2454408,0.0409068,2.454408,503.0
2948,2455240,0.040920667,2.45524,509.0
2949,2456076,0.0409346,2.456076,537.0
2950,2456908,0.040948465,2.456908,537.0
2951,2457740,0.040962335,2.45774,473.0
2952,2458576,0.040976267,2.458576,509.0
2953,2459408,0.040990133,2.459408,508.0
2954,2460240,0.041004,2.46024,519.0
2955,2461076,0.041017935,2.461076,531.0
2956,2461908,0.0410318,2.461908,508.0
2957,2462740,0.041045666,2.46274,476.0
2958,2463576,0.0410596,2.463576,504.0
2959,2464408,0.041073468,2.464408,521.0
2960,2465244,0.0410874,2.465244,534.0
2961,2466076,0.041101266,2.466076,535.0
2962,2466908,0.041115135,2.466908,501.0
2963,2467744,0.041129068,2.467744,506.0
2964,2468576,0.041142933,2.468576,490.0
2965,2469408,0.0411568,2.469408,515.0
2966,2470244,0.041170735,2.470244,530.0
2967,2471076,0.0411846,2.471076,495.0
2968,2471908,0.041198466,2.471908,511.0
2969,2472744,0.0412124,2.472744,518.0
2970,2473576,0.041226268,2.473576,536.0
2971,2474408,0.041240133,2.474408,534.0
2972,2475244,0.041254066,2.475244,510.0
2973,2476076,0.041267935,2.476076,494.0
2974,2476908,0.0412818,2.476908,503.0
2975,2477744,0.041295733,2.477744,520.0
2976,2478576,0.0413096,2.478576,497.0
2977,2479408,0.041323468,2.479408,486.0
2978,2480244,0.0413374,2.480244,521.0
2979,2481076,0.041351266,2.481076,507.0
2980,2481908,0.04136513,2.481908,508.0
2981,2482744,0.041379068,2.482744,487.0
2982,2483576,0.041392934,2.483576,497.0
2983,2484408,0.0414068,2.484408,535.0
2984,2485244,0.04142073,2.485244,532.0
2985,2486076,0.0414346,2.486076,508.0
2986,2486908,0.041448466,2.486908,527.0
2987,2487744,0.0414624,2.487744,543.0
2988,2488576,0.04147627,2.488576,538.0
2989,2489408,0.041490134,2.489408,536.0
2990,2490244,0.041504066,2.490244,471.0
2991,2491076,0.041517932,2.491076,496.0
2992,2491912,0.04153187,2.491912,516.0
2993,2492744,0.041545734,2.492744,512.0
2994,2493576,0.0415596,2.493576,507.0
2995,2494412,0.041573532,2.494412,507.0
2996,2495244,0.0415874,2.495244,503.0
2997,2496076,0.041601267,2.496076,519.0
2998,2496912,0.0416152,2.496912,533.0
2999,2497744,0.041629065,2.497744,486.0
3000,2498576,0.041642934,2.498576,505.0
3001,2499412,0.041656867,2.499412,516.0
3002,2500244,0.041670732,2.500244,521.0
3003,2501076,0.0416846,2.501076,492.0
3004,2501912,0.041698534,2.501912,497.0
3005,2502744,0.0417124,2.502744,499.0
3006,2503576,0.041726265,2.503576,517.0
3007,2504412,0.0417402,2.504412,528.0
3008,2505244,0.041754067,2.505244,487.0
3009,2506076,0.041767932,2.506076,511.0
3010,2506912,0.041781865,2.506912,516.0
3011,2507744,0.041795734,2.507744,513.0
3012,2508576,0.0418096,2.508576,530.0
3013,2509412,0.041823532,2.509412,512.0
3014,2510244,0.0418374,2.510244,524.0
3015,2511076,0.041851267,2.511076,539.0
3016,2511912,0.0418652,2.511912,533.0
3017,2512744,0.041879065,2.512744,525.0
3018,2513576,0.041892935,2.513576,527.0
3019,2514412,0.041906867,2.514412,513.0
3020,2515244,0.041920733,2.515244,504.0
3021,2516076,0.0419346,2.516076,530.0
3022,2516912,0.041948535,2.516912,496.0
3023,2517744,0.0419624,2.517744,497.0
3024,2518580,0.041976333,2.51858,521.0
3025,2519412,0.0419902,2.519412,526.0
3026,2520244,0.042004067,2.520244,470.0
3027,2521080,0.042018,2.52108,491.0
3028,2521912,0.042031866,2.521912,497.0
3029,2522744,0.042045735,2.522744,514.0
3030,2523580,0.042059667,2.52358,517.0
3031,2524412,0.042073533,2.524412,499.0
3032,2525244,0.0420874,2.525244,522.0
3033,2526080,0.042101335,2.52608,526.0
3034,2526912,0.0421152,2.526912,552.0
3035,2527744,0.042129066,2.527744,512.0
3036,2528580,0.042143,2.52858,513.0
3037,2529412,0.042156868,2.529412,529.0
3038,2530244,0.042170733,2.530244,523.0
3039,2531080,0.042184666,2.53108,529.0
3040,2531912,0.042198535,2.531912,494.0
3041,2532744,0.0422124,2.532744,504.0
3042,2533580,0.042226333,2.53358,501.0
3043,2534412,0.0422402,2.534412,523.0
3044,2535244,0.042254068,2.535244,483.0
3045,2536080,0.042268,2.53608,480.0
3046,2536912,0.042281866,2.536912,496.0
3047,2537744,0.04229573,2.537744,505.0
3048,2538580,0.042309668,2.53858,537.0
3049,2539412,0.042323533,2.539412,471.0
3050,2540244,0.0423374,2.540244,502.0
3051,2541080,0.04235133,2.54108,506.0
3052,2541912,0.0423652,2.541912,516.0
3053,2542744,0.042379066,2.542744,500.0
3054,2543580,0.042393,2.54358,498.0
3055,2544412,0.04240687,2.544412,543.0
3056,2545244,0.042420734,2.545244,541.0
3057,2546080,0.042434666,2.54608,551.0
3058,2546912,0.04244853,2.546912,512.0
3059,2547748,0.04246247,2.547748,511.0
3060,2548580,0.042476334,2.54858,515.0
3061,2549412,0.0424902,2.549412,528.0
3062,2550248,0.04250413,2.550248,541.0
3063,2551080,0.042518,2.55108,487.0
3064,2551912,0.042531867,2.551912,492.0
3065,2552748,0.0425458,2.552748,517.0
3066,2553580,0.04255967,2.55358,519.0
3067,2554412,0.042573534,2.554412,501.0
3068,2555248,0.042587467,2.555248,453.0
3069,2556080,0.042601332,2.55608,493.0
3070,2556912,0.0426152,2.556912,508.0
3071,2557748,0.042629134,2.557748,533.0
3072,2558580,0.042643,2.55858,480.0
3073,2559412,0.042656865,2.559412,497.0
3074,2560248,0.0426708,2.560248,507.0
3075,2561080,0.042684667,2.56108,525.0
3076,2561912,0.042698532,2.561912,523.0
3077,2562748,0.042712465,2.562748,511.0
3078,2563580,0.042726334,2.56358,524.0
3079,2564412,0.0427402,2.564412,549.0
3080,2565248,0.042754132,2.565248,550.0
3081,2566080,0.042768,2.56608,539.0
3082,2566912,0.042781867,2.566912,533.0
3083,2567748,0.0427958,2.567748,521.0
3084,2568580,0.042809665,2.56858,541.0
3085,2569412,0.042823534,2.569412,524.0
3086,2570248,0.042837467,2.570248,503.0
3087,2571080,0.042851333,2.57108,488.0
3088,2571916,0.042865265,2.571916,488.0
3089,2572748,0.042879134,2.572748,529.0
3090,2573580,0.042893,2.57358,514.0
3091,2574416,0.042906933,2.574416,483.0
3092,2575248,0.0429208,2.575248,484.0
3093,2576080,0.042934667,2.57608,502.0
3094,2576916,0.0429486,2.576916,507.0
3095,2577748,0.042962465,2.577748,501.0
3096,2578580,0.042976335,2.57858,501.0
3097,2579416,0.042990267,2.579416,506.0
3098,2580248,0.043004133,2.580248,512.0
3099,2581080,0.043018,2.58108,509.0
3100,2581916,0.043031935,2.581916,537.0
3101,2582748,0.0430458,2.582748,528.0
3102,2583580,0.043059666,2.58358,508.0
3103,2584416,0.0430736,2.584416,530.0
3104,2585248,0.043087468,2.585248,536.0
3105,2586080,0.043101333,2.58608,525.0
3106,2586916,0.043115266,2.586916,523.0
3107,2587748,0.043129135,2.587748,534.0
3108,2588580,0.043143,2.58858,540.0
3109,2589416,0.043156933,2.589416,525.0
3110,2590248,0.0431708,2.590248,499.0
3111,2591080,0.043184668,2.59108,505.0
3112,2591916,0.0431986,2.591916,506.0
3113,2592748,0.043212466,2.592748,488.0
3114,2593580,0.04322633,2.59358,471.0
3115,2594416,0.043240268,2.594416,483.0
3116,2595248,0.043254133,2.595248,497.0
3117,2596080,0.043268,2.59608,526.0
3118,2596916,0.043281935,2.596916,507.0
3119,2597748,0.0432958,2.597748,502.0
3120,2598584,0.043309733,2.598584,498.0
3121,2599416,0.0433236,2.599416,514.0
3122,2600248,0.043337468,2.600248,528.0
3123,2601084,0.0433514,2.601084,508.0
3124,2601916,0.043365266,2.601916,503.0
3125,2602748,0.04337913,2.602748,519.0
3126,2603584,0.043393068,2.603584,552.0
3127,2604416,0.043406934,2.604416,550.0
3128,2605248,0.0434208,2.605248,504.0
3129,2606088,0.0434348,2.606088,509.0
3130,2606916,0.0434486,2.606916,528.0
