id,Total Microseconds,Minute,Seconds,Value
0,1048,0,0.001048,511
1,1784,0,0.001784,510
2,2620,0,0.00262,510
3,3452,0,0.003452,511
4,4284,0,0.004284,513
5,5120,0,0.00512,512
6,5952,0,0.005952,515
7,1048,0,0.001048,5510
8,1784,0,0.001784,509
9,2620,0,0.00262,508
10,3452,0,0.003452,509
11,4284,0,0.004284,512
12,5120,0,0.00512,515
13,5952,0,0.005952,514
14,6784,0,0.006784,512
15,7620,0,0.00762,510
16,8452,0,0.008452,508
17,9284,0,0.009284,509
18,10120,0,0.01012,511
19,10952,0,0.010952,513
20,11784,0,0.011784,513
21,12620,0,0.01262,512
22,13452,0,0.013452,511
23,14288,0,0.014288,511
24,15120,0,0.01512,512
25,15952,0,0.015952,513
26,16788,0,0.016788,511
27,17620,0,0.01762,511
28,18452,0,0.018452,511
29,19288,0,0.019288,510
30,20120,0,0.02012,511
31,20952,0,0.020952,512
32,21788,0,0.021788,513
33,22620,0,0.02262,512
34,23452,0,0.023452,510
35,24288,0,0.024288,510
36,25120,0,0.02512,510
37,25952,0,0.025952,512
38,26788,0,0.026788,513
39,27620,0,0.02762,512
40,28452,0,0.028452,510
41,29288,0,0.029288,508
42,30120,0,0.03012,510
43,30952,0,0.030952,513
44,31788,0,0.031788,513
45,32620,0,0.03262,513
46,33452,0,0.033452,513
47,34288,0,0.034288,510
48,35120,0,0.03512,509
49,35952,0,0.035952,510
50,36788,0,0.036788,510
51,37620,0,0.03762,510
52,38456,0,0.038456,510
53,39288,0,0.039288,515
54,40120,0,0.04012,514
55,40956,0,0.040956,509
56,41788,0,0.041788,509
57,42620,0,0.04262,508
58,43456,0,0.043456,510
59,44288,0,0.044288,514
60,45120,0,0.04512,512
61,45956,0,0.045956,509
62,46788,0,0.046788,512
63,47620,0,0.04762,511
64,48456,0,0.048456,509
65,49288,0,0.049288,511
66,50120,0,0.05012,513
67,50956,0,0.050956,508
68,51788,0,0.051788,508
69,52620,0,0.05262,509
70,53456,0,0.053456,510
71,54288,0,0.054288,509
72,55120,0,0.05512,514
73,55956,0,0.055956,512
74,56788,0,0.056788,509
75,57620,0,0.05762,512
76,58456,0,0.058456,512
77,59288,0,0.059288,511
78,60120,0,0.06012,511
79,60956,0,0.060956,515
80,61788,0,0.061788,512
81,62620,0,0.06262,510
82,63456,0,0.063456,512
83,64288,0,0.064288,513
84,65120,0,0.06512,509
85,65956,0,0.065956,513
86,66788,0,0.066788,515
87,67624,0,0.067624,511
88,68456,0,0.068456,510
89,69288,0,0.069288,510
90,70124,0,0.070124,510
91,70956,0,0.070956,508
92,71788,0,0.071788,513
93,72624,0,0.072624,515
94,73456,0,0.073456,511
95,74288,0,0.074288,511
96,75124,0,0.075124,511
97,75956,0,0.075956,510
98,76788,0,0.076788,509
99,77624,0,0.077624,513
100,78456,0,0.078456,512
101,79288,0,0.079288,510
102,80124,0,0.080124,512
103,80956,0,0.080956,512
104,81788,0,0.081788,512
105,82624,0,0.082624,512
106,83456,0,0.083456,513
107,84288,0,0.084288,511
108,85124,0,0.085124,510
109,85956,0,0.085956,511
110,86788,0,0.086788,512
111,87624,0,0.087624,512
112,88456,0,0.088456,513
113,89288,0,0.089288,514
114,90124,0,0.090124,510
115,90956,0,0.090956,510
116,91788,0,0.091788,510
117,92624,0,0.092624,512
118,93456,0,0.093456,510
119,94292,0,0.094292,511
120,95124,0,0.095124,512
121,95956,0,0.095956,509
122,96792,0,0.096792,511
123,97624,0,0.097624,512
124,98456,0,0.098456,512
125,99292,0,0.099292,508
126,100124,0,0.100124,510
127,100956,0,0.100956,511
128,101792,0,0.101792,510
129,102624,0,0.102624,512
130,103456,0,0.103456,513
131,104292,0,0.104292,510
132,105124,0,0.105124,505
133,105956,0,0.105956,509
134,106792,0,0.106792,512
135,107624,0,0.107624,512
136,108456,0,0.108456,514
137,109292,0,0.109292,513
138,110124,0,0.110124,510
139,110956,0,0.110956,507
140,111792,0,0.111792,510
141,112624,0,0.112624,511
142,113456,0,0.113456,510
143,114292,0,0.114292,514
144,115124,0,0.115124,512
145,115956,0,0.115956,510
146,116792,0,0.116792,507
147,117624,0,0.117624,511
148,118460,0,0.11846,513
149,119292,0,0.119292,512
150,120124,0,0.120124,512
151,120960,0,0.12096,512
152,121792,0,0.121792,509
153,122624,0,0.122624,509
154,123460,0,0.12346,512
155,124292,0,0.124292,512
156,125124,0,0.125124,510
157,125960,0,0.12596,512
158,126792,0,0.126792,510
159,127624,0,0.127624,508
160,128460,0,0.12846,508
161,129292,0,0.129292,511
162,130124,0,0.130124,513
163,130960,0,0.13096,514
164,131792,0,0.131792,511
165,132624,0,0.132624,510
166,133460,0,0.13346,510
167,134292,0,0.134292,508
168,135124,0,0.135124,509
169,135960,0,0.13596,513
170,136792,0,0.136792,514
171,137624,0,0.137624,511
172,138460,0,0.13846,509
173,139292,0,0.139292,507
174,140124,0,0.140124,509
175,140960,0,0.14096,513
176,141792,0,0.141792,514
177,142624,0,0.142624,514
178,143460,0,0.14346,511
179,144292,0,0.144292,508
180,145128,0,0.145128,506
181,145960,0,0.14596,509
182,146792,0,0.146792,513
183,147628,0,0.147628,512
184,148460,0,0.14846,513
185,149292,0,0.149292,512
186,150128,0,0.150128,508
187,150960,0,0.15096,508
188,151792,0,0.151792,509
189,152628,0,0.152628,511
190,153460,0,0.15346,513
191,154292,0,0.154292,513
192,155128,0,0.155128,512
193,155960,0,0.15596,512
194,156792,0,0.156792,513
195,157628,0,0.157628,513
196,158460,0,0.15846,512
197,159292,0,0.159292,509
198,160128,0,0.160128,509
199,160960,0,0.16096,510
200,161792,0,0.161792,513
201,162628,0,0.162628,514
202,163460,0,0.16346,513
203,164292,0,0.164292,512
204,165128,0,0.165128,509
205,165960,0,0.16596,508
206,166792,0,0.166792,509
207,167628,0,0.167628,511
208,168460,0,0.16846,512
209,169292,0,0.169292,512
210,170128,0,0.170128,512
211,170960,0,0.17096,508
212,171796,0,0.171796,510
213,172628,0,0.172628,512
214,173460,0,0.17346,512
215,174296,0,0.174296,511
216,175128,0,0.175128,513
217,175960,0,0.17596,512
218,176796,0,0.176796,510
219,177628,0,0.177628,511
220,178460,0,0.17846,514
221,179296,0,0.179296,514
222,180128,0,0.180128,512
223,180960,0,0.18096,511
224,181796,0,0.181796,509
225,182628,0,0.182628,507
226,183460,0,0.18346,512
227,184296,0,0.184296,515
228,185128,0,0.185128,512
229,185960,0,0.18596,510
230,186796,0,0.186796,509
231,187628,0,0.187628,508
232,188460,0,0.18846,507
233,189296,0,0.189296,515
234,190128,0,0.190128,516
235,190960,0,0.19096,513
236,191796,0,0.191796,513
237,192628,0,0.192628,510
238,193460,0,0.19346,508
239,194296,0,0.194296,508
240,195128,0,0.195128,514
241,195960,0,0.19596,516
242,196796,0,0.196796,514
243,197628,0,0.197628,512
244,198460,0,0.19846,511
245,199296,0,0.199296,509
246,200128,0,0.200128,509
247,200964,0,0.200964,513
248,201796,0,0.201796,513
249,202628,0,0.202628,509
250,203464,0,0.203464,508
251,204296,0,0.204296,508
252,205128,0,0.205128,509
253,205964,0,0.205964,510
254,206796,0,0.206796,515
255,207628,0,0.207628,514
256,208464,0,0.208464,509
257,209296,0,0.209296,507
258,210128,0,0.210128,509
259,210964,0,0.210964,510
260,211796,0,0.211796,511
261,212628,0,0.212628,514
262,213464,0,0.213464,515
263,214296,0,0.214296,510
264,215128,0,0.215128,508
265,215964,0,0.215964,509
266,216796,0,0.216796,511
267,217628,0,0.217628,511
268,218464,0,0.218464,513
269,219296,0,0.219296,513
270,220128,0,0.220128,510
271,220964,0,0.220964,508
272,221796,0,0.221796,511
273,222628,0,0.222628,514
274,223464,0,0.223464,512
275,224296,0,0.224296,512
276,225132,0,0.225132,512
277,225964,0,0.225964,510
278,226796,0,0.226796,508
279,227632,0,0.227632,511
280,228464,0,0.228464,512
281,229296,0,0.229296,513
282,230132,0,0.230132,511
283,230964,0,0.230964,510
284,231796,0,0.231796,511
285,232632,0,0.232632,511
286,233464,0,0.233464,512
287,234296,0,0.234296,511
288,235132,0,0.235132,511
289,235964,0,0.235964,509
290,236796,0,0.236796,509
291,237632,0,0.237632,512
292,238464,0,0.238464,515
293,239296,0,0.239296,514
294,240132,0,0.240132,513
295,240964,0,0.240964,510
296,241796,0,0.241796,509
297,242632,0,0.242632,508
298,243464,0,0.243464,511
299,244296,0,0.244296,515
300,245132,0,0.245132,514
301,245964,0,0.245964,510
302,246796,0,0.246796,509
303,247632,0,0.247632,509
304,248464,0,0.248464,511
305,249296,0,0.249296,511
306,250132,0,0.250132,514
307,250964,0,0.250964,514
308,251800,0,0.2518,510
309,252632,0,0.252632,507
310,253464,0,0.253464,508
311,254300,0,0.2543,511
312,255132,0,0.255132,511
313,255964,0,0.255964,512
314,256800,0,0.2568,513
315,257632,0,0.257632,512
316,258464,0,0.258464,510
317,259300,0,0.2593,509
318,260132,0,0.260132,511
319,260964,0,0.260964,513
320,261800,0,0.2618,513
321,262632,0,0.262632,510
322,263464,0,0.263464,510
323,264300,0,0.2643,511
324,265132,0,0.265132,510
325,265964,0,0.265964,510
326,266800,0,0.2668,511
327,267632,0,0.267632,513
328,268464,0,0.268464,508
329,269300,0,0.2693,510
330,270132,0,0.270132,512
331,270964,0,0.270964,514
332,271800,0,0.2718,511
333,272632,0,0.272632,512
334,273464,0,0.273464,511
335,274300,0,0.2743,510
336,275132,0,0.275132,508
337,275964,0,0.275964,513
338,276800,0,0.2768,514
339,277632,0,0.277632,512
340,278464,0,0.278464,509
341,279300,0,0.2793,510
342,280132,0,0.280132,512
343,280968,0,0.280968,510
344,281800,0,0.2818,511
345,282632,0,0.282632,515
346,283468,0,0.283468,514
347,284300,0,0.2843,509
348,285132,0,0.285132,509
349,285968,0,0.285968,510
350,286800,0,0.2868,511
351,287632,0,0.287632,511
352,288468,0,0.288468,515
353,289300,0,0.2893,516
354,290132,0,0.290132,511
355,290968,0,0.290968,509
356,291800,0,0.2918,510
357,292632,0,0.292632,510
358,293468,0,0.293468,512
359,294300,0,0.2943,510
360,295132,0,0.295132,514
361,295968,0,0.295968,511
362,296800,0,0.2968,508
363,297632,0,0.297632,511
364,298468,0,0.298468,511
365,299300,0,0.2993,512
366,300132,0,0.300132,511
367,300968,0,0.300968,513
368,301800,0,0.3018,512
369,302632,0,0.302632,510
370,303468,0,0.303468,511
371,304300,0,0.3043,511
372,305136,0,0.305136,513
373,305968,0,0.305968,512
374,306800,0,0.3068,510
375,307636,0,0.307636,514
376,308468,0,0.308468,512
377,309300,0,0.3093,510
378,310136,0,0.310136,510
379,310968,0,0.310968,512
380,311800,0,0.3118,512
381,312636,0,0.312636,509
382,313468,0,0.313468,512
383,314300,0,0.3143,515
384,315136,0,0.315136,512
385,315968,0,0.315968,511
386,316800,0,0.3168,510
387,317636,0,0.317636,510
388,318472,0,0.318472,507
389,319300,0,0.3193,511
390,320136,0,0.320136,515
391,320968,0,0.320968,514
392,321800,0,0.3218,512
393,322636,0,0.322636,512
394,323468,0,0.323468,510
395,324300,0,0.3243,510
396,325136,0,0.325136,509
397,325968,0,0.325968,514
398,326800,0,0.3268,514
399,327636,0,0.327636,509
400,328468,0,0.328468,509
401,329300,0,0.3293,510
402,330136,0,0.330136,511
403,330968,0,0.330968,510
404,331800,0,0.3318,515
405,332636,0,0.332636,515
406,333468,0,0.333468,511
407,334304,0,0.334304,513
408,335136,0,0.335136,510
409,335968,0,0.335968,511
410,336804,0,0.336804,511
411,337636,0,0.337636,508
412,338468,0,0.338468,513
413,339304,0,0.339304,514
414,340136,0,0.340136,511
415,340968,0,0.340968,511
416,341804,0,0.341804,511
417,342636,0,0.342636,512
418,343468,0,0.343468,509
419,344304,0,0.344304,510
420,345136,0,0.345136,511
421,345968,0,0.345968,510
422,346804,0,0.346804,512
423,347636,0,0.347636,511
424,348468,0,0.348468,511
425,349304,0,0.349304,511
426,350136,0,0.350136,509
427,350968,0,0.350968,512
428,351804,0,0.351804,511
429,352636,0,0.352636,510
430,353468,0,0.353468,511
431,354304,0,0.354304,510
432,355136,0,0.355136,510
433,355968,0,0.355968,509
434,356804,0,0.356804,507
435,357636,0,0.357636,513
436,358468,0,0.358468,514
437,359304,0,0.359304,512
438,360136,0,0.360136,511
439,360972,0,0.360972,510
440,361804,0,0.361804,512
441,362636,0,0.362636,510
442,363472,0,0.363472,513
443,364304,0,0.364304,514
444,365136,0,0.365136,510
445,365972,0,0.365972,509
446,366804,0,0.366804,510
447,367636,0,0.367636,509
448,368472,0,0.368472,510
449,369304,0,0.369304,509
450,370136,0,0.370136,512
451,370972,0,0.370972,513
452,371804,0,0.371804,510
453,372636,0,0.372636,511
454,373472,0,0.373472,511
455,374304,0,0.374304,513
456,375136,0,0.375136,509
457,375972,0,0.375972,509
458,376804,0,0.376804,514
459,377636,0,0.377636,511
460,378472,0,0.378472,511
461,379304,0,0.379304,512
462,380136,0,0.380136,510
463,380972,0,0.380972,512
464,381804,0,0.381804,510
465,382636,0,0.382636,509
466,383472,0,0.383472,513
467,384304,0,0.384304,512
468,385136,0,0.385136,510
469,385972,0,0.385972,510
470,386804,0,0.386804,510
471,387640,0,0.38764,508
472,388472,0,0.388472,506
473,389304,0,0.389304,512
474,390140,0,0.39014,512
475,390972,0,0.390972,512
476,391804,0,0.391804,511
477,392640,0,0.39264,508
478,393472,0,0.393472,508
479,394304,0,0.394304,510
480,395140,0,0.39514,508
481,395972,0,0.395972,514
482,396804,0,0.396804,516
483,397640,0,0.39764,511
484,398472,0,0.398472,510
485,399304,0,0.399304,511
486,400140,0,0.40014,509
487,400972,0,0.400972,510
488,401804,0,0.401804,510
489,402640,0,0.40264,514
490,403472,0,0.403472,513
491,404304,0,0.404304,512
492,405140,0,0.40514,511
493,405972,0,0.405972,510
494,406804,0,0.406804,512
495,407640,0,0.40764,512
496,408472,0,0.408472,511
497,409304,0,0.409304,513
498,410140,0,0.41014,511
499,410972,0,0.410972,509
500,411804,0,0.411804,510
501,412640,0,0.41264,511
502,413472,0,0.413472,511
503,414308,0,0.414308,511
504,415140,0,0.41514,511
505,415972,0,0.415972,512
506,416808,0,0.416808,511
507,417640,0,0.41764,510
508,418472,0,0.418472,512
509,419308,0,0.419308,509
510,420140,0,0.42014,509
511,420972,0,0.420972,509
512,421808,0,0.421808,510
513,422640,0,0.42264,513
514,423472,0,0.423472,513
515,424308,0,0.424308,511
516,425140,0,0.42514,512
517,425972,0,0.425972,510
518,426808,0,0.426808,509
519,427640,0,0.42764,511
520,428472,0,0.428472,512
521,429308,0,0.429308,510
522,430140,0,0.43014,513
523,430972,0,0.430972,514
524,431808,0,0.431808,513
525,432640,0,0.43264,511
526,433472,0,0.433472,510
527,434308,0,0.434308,511
528,435140,0,0.43514,511
529,435972,0,0.435972,511
530,436808,0,0.436808,511
531,437640,0,0.43764,512
532,438476,0,0.438476,510
533,439308,0,0.439308,511
534,440140,0,0.44014,511
535,440976,0,0.440976,511
536,441808,0,0.441808,511
537,442640,0,0.44264,511
538,443476,0,0.443476,511
539,444308,0,0.444308,512
540,445140,0,0.44514,514
541,445976,0,0.445976,513
542,446808,0,0.446808,512
543,447640,0,0.44764,511
544,448476,0,0.448476,512
545,449308,0,0.449308,511
546,450140,0,0.45014,510
547,450976,0,0.450976,512
548,451808,0,0.451808,513
549,452640,0,0.45264,510
550,453476,0,0.453476,510
551,454308,0,0.454308,511
552,455140,0,0.45514,511
553,455976,0,0.455976,514
554,456808,0,0.456808,512
555,457640,0,0.45764,511
556,458476,0,0.458476,510
557,459308,0,0.459308,511
558,460140,0,0.46014,510
559,460976,0,0.460976,511
560,461808,0,0.461808,511
561,462640,0,0.46264,512
562,463476,0,0.463476,512
563,464308,0,0.464308,510
564,465144,0,0.465144,512
565,465976,0,0.465976,512
566,466808,0,0.466808,509
567,467644,0,0.467644,510
568,468476,0,0.468476,510
569,469308,0,0.469308,509
570,470144,0,0.470144,510
571,470976,0,0.470976,510
572,471808,0,0.471808,509
573,472644,0,0.472644,514
574,473476,0,0.473476,514
575,474308,0,0.474308,511
576,475144,0,0.475144,511
577,475976,0,0.475976,509
578,476808,0,0.476808,510
579,477644,0,0.477644,512
580,478476,0,0.478476,514
581,479308,0,0.479308,514
582,480144,0,0.480144,510
583,480976,0,0.480976,510
584,481808,0,0.481808,510
585,482644,0,0.482644,512
586,483476,0,0.483476,515
587,484308,0,0.484308,512
588,485144,0,0.485144,511
589,485976,0,0.485976,509
590,486808,0,0.486808,508
591,487644,0,0.487644,508
592,488476,0,0.488476,514
593,489308,0,0.489308,511
594,490144,0,0.490144,513
595,490976,0,0.490976,510
596,491812,0,0.491812,508
597,492644,0,0.492644,509
598,493476,0,0.493476,511
599,494312,0,0.494312,512
600,495144,0,0.495144,513
601,495976,0,0.495976,512
602,496812,0,0.496812,510
603,497644,0,0.497644,511
604,498476,0,0.498476,513
605,499312,0,0.499312,515
606,500144,0,0.500144,513
607,500976,0,0.500976,514
608,501812,0,0.501812,511
609,502644,0,0.502644,511
610,503476,0,0.503476,510
611,504312,0,0.504312,513
612,505144,0,0.505144,514
613,505976,0,0.505976,514
614,506812,0,0.506812,510
615,507644,0,0.507644,509
616,508476,0,0.508476,510
617,509312,0,0.509312,511
618,510144,0,0.510144,512
619,510976,0,0.510976,512
620,511812,0,0.511812,512
621,512644,0,0.512644,510
622,513476,0,0.513476,510
623,514312,0,0.514312,509
624,515144,0,0.515144,512
625,515976,0,0.515976,514
626,516812,0,0.516812,512
627,517644,0,0.517644,508
628,518476,0,0.518476,509
629,519312,0,0.519312,510
630,520144,0,0.520144,511
631,520980,0,0.52098,512
632,521812,0,0.521812,514
633,522644,0,0.522644,513
634,523480,0,0.52348,512
635,524312,0,0.524312,510
636,525144,0,0.525144,507
637,525980,0,0.52598,510
638,526812,0,0.526812,511
639,527644,0,0.527644,512
640,528480,0,0.52848,508
641,529312,0,0.529312,512
642,530144,0,0.530144,511
643,530980,0,0.53098,509
644,531812,0,0.531812,510
645,532644,0,0.532644,508
646,533480,0,0.53348,508
647,534312,0,0.534312,510
648,535144,0,0.535144,511
649,535980,0,0.53598,512
650,536812,0,0.536812,513
651,537644,0,0.537644,510
652,538480,0,0.53848,507
653,539312,0,0.539312,508
654,540144,0,0.540144,511
655,540980,0,0.54098,510
656,541812,0,0.541812,514
657,542644,0,0.542644,515
658,543480,0,0.54348,514
659,544312,0,0.544312,512
660,545144,0,0.545144,508
661,545980,0,0.54598,508
662,546812,0,0.546812,508
663,547648,0,0.547648,511
664,548480,0,0.54848,510
665,549312,0,0.549312,513
666,550148,0,0.550148,513
667,550980,0,0.55098,511
668,551812,0,0.551812,507
669,552648,0,0.552648,508
670,553480,0,0.55348,510
671,554312,0,0.554312,511
672,555148,0,0.555148,512
673,555980,0,0.55598,512
674,556812,0,0.556812,515
675,557648,0,0.557648,513
676,558480,0,0.55848,512
677,559312,0,0.559312,511
678,560148,0,0.560148,512
679,560980,0,0.56098,512
680,561812,0,0.561812,511
681,562648,0,0.562648,508
682,563480,0,0.56348,511
683,564312,0,0.564312,514
684,565148,0,0.565148,513
685,565980,0,0.56598,510
686,566812,0,0.566812,508
687,567648,0,0.567648,508
688,568480,0,0.56848,508
689,569312,0,0.569312,510
690,570148,0,0.570148,513
691,570980,0,0.57098,514
692,571812,0,0.571812,516
693,572648,0,0.572648,514
694,573480,0,0.57348,511
695,574316,0,0.574316,509
696,575148,0,0.575148,510
697,575980,0,0.57598,512
698,576816,0,0.576816,511
699,577648,0,0.577648,510
700,578480,0,0.57848,511
701,579316,0,0.579316,513
702,580148,0,0.580148,512
703,580980,0,0.58098,511
704,581816,0,0.581816,511
705,582648,0,0.582648,509
706,583480,0,0.58348,508
707,584316,0,0.584316,509
708,585148,0,0.585148,508
709,585980,0,0.58598,513
710,586816,0,0.586816,516
711,587648,0,0.587648,512
712,588480,0,0.58848,510
713,589316,0,0.589316,508
714,590148,0,0.590148,511
715,590980,0,0.59098,512
716,591816,0,0.591816,513
717,592648,0,0.592648,514
718,593480,0,0.59348,512
719,594316,0,0.594316,510
720,595148,0,0.595148,510
721,595980,0,0.59598,508
722,596816,0,0.596816,510
723,597648,0,0.597648,510
724,598480,0,0.59848,512
725,599316,0,0.599316,512
726,600148,0,0.600148,509
727,600984,0,0.600984,511
728,601816,0,0.601816,512
729,602648,0,0.602648,512
730,603484,0,0.603484,511
731,604316,0,0.604316,509
732,605148,0,0.605148,508
733,605984,0,0.605984,508
734,606816,0,0.606816,509
735,607648,0,0.607648,511
736,608484,0,0.608484,514
737,609316,0,0.609316,514
738,610148,0,0.610148,509
739,610984,0,0.610984,508
740,611816,0,0.611816,508
741,612648,0,0.612648,510
742,613484,0,0.613484,513
743,614316,0,0.614316,517
744,615148,0,0.615148,512
745,615984,0,0.615984,514
746,616816,0,0.616816,512
747,617648,0,0.617648,511
748,618484,0,0.618484,509
749,619316,0,0.619316,510
750,620148,0,0.620148,512
751,620984,0,0.620984,511
752,621816,0,0.621816,512
753,622648,0,0.622648,510
754,623484,0,0.623484,512
755,624316,0,0.624316,515
756,625148,0,0.625148,515
757,625984,0,0.625984,512
758,626816,0,0.626816,508
759,627652,0,0.627652,508
760,628484,0,0.628484,511
761,629316,0,0.629316,512
762,630152,0,0.630152,512
763,630984,0,0.630984,513
764,631816,0,0.631816,512
765,632652,0,0.632652,510
766,633484,0,0.633484,510
767,634316,0,0.634316,509
768,635152,0,0.635152,510
769,635984,0,0.635984,512
770,636816,0,0.636816,513
771,637652,0,0.637652,511
772,638484,0,0.638484,510
773,639316,0,0.639316,513
774,640152,0,0.640152,515
775,640984,0,0.640984,514
776,641816,0,0.641816,510
777,642652,0,0.642652,507
778,643484,0,0.643484,507
779,644316,0,0.644316,509
780,645152,0,0.645152,512
781,645984,0,0.645984,514
782,646816,0,0.646816,516
783,647652,0,0.647652,515
784,648484,0,0.648484,513
785,649316,0,0.649316,509
786,650152,0,0.650152,510
787,650984,0,0.650984,511
788,651816,0,0.651816,514
789,652652,0,0.652652,514
790,653484,0,0.653484,514
791,654320,0,0.65432,513
792,655152,0,0.655152,513
793,655984,0,0.655984,514
794,656820,0,0.65682,515
795,657652,0,0.657652,511
796,658484,0,0.658484,510
797,659320,0,0.65932,508
798,660152,0,0.660152,508
799,660984,0,0.660984,508
800,661820,0,0.66182,510
801,662652,0,0.662652,513
802,663484,0,0.663484,515
803,664320,0,0.66432,517
804,665152,0,0.665152,511
805,665984,0,0.665984,508
806,666820,0,0.66682,510
807,667656,0,0.667656,513
808,668484,0,0.668484,514
809,669320,0,0.66932,514
810,670152,0,0.670152,512
811,670984,0,0.670984,512
812,671820,0,0.67182,512
813,672652,0,0.672652,513
814,673484,0,0.673484,511
815,674320,0,0.67432,510
816,675152,0,0.675152,511
817,675984,0,0.675984,510
818,676820,0,0.67682,510
819,677652,0,0.677652,510
820,678484,0,0.678484,513
821,679320,0,0.67932,516
822,680152,0,0.680152,515
823,680988,0,0.680988,515
824,681820,0,0.68182,510
825,682652,0,0.682652,508
826,683488,0,0.683488,509
827,684320,0,0.68432,512
828,685152,0,0.685152,512
829,685988,0,0.685988,509
830,686820,0,0.68682,510
831,687652,0,0.687652,511
832,688488,0,0.688488,510
833,689320,0,0.68932,513
834,690152,0,0.690152,509
835,690988,0,0.690988,511
836,691820,0,0.69182,512
837,692652,0,0.692652,509
838,693488,0,0.693488,508
839,694320,0,0.69432,511
840,695152,0,0.695152,515
841,695988,0,0.695988,514
842,696820,0,0.69682,514
843,697652,0,0.697652,512
844,698488,0,0.698488,510
845,699320,0,0.69932,508
846,700152,0,0.700152,510
847,700988,0,0.700988,509
848,701820,0,0.70182,509
849,702652,0,0.702652,512
850,703488,0,0.703488,512
851,704320,0,0.70432,513
852,705156,0,0.705156,514
853,705988,0,0.705988,516
854,706820,0,0.70682,514
855,707656,0,0.707656,513
856,708488,0,0.708488,511
857,709320,0,0.70932,509
858,710156,0,0.710156,509
859,710988,0,0.710988,508
860,711820,0,0.71182,511
861,712656,0,0.712656,511
862,713488,0,0.713488,512
863,714320,0,0.71432,511
864,715156,0,0.715156,512
865,715988,0,0.715988,510
866,716820,0,0.71682,511
867,717656,0,0.717656,510
868,718488,0,0.718488,511
869,719320,0,0.71932,511
870,720156,0,0.720156,510
871,720988,0,0.720988,513
872,721820,0,0.72182,513
873,722656,0,0.722656,515
874,723488,0,0.723488,510
875,724320,0,0.72432,508
876,725156,0,0.725156,507
877,725988,0,0.725988,508
878,726820,0,0.72682,509
879,727656,0,0.727656,512
880,728488,0,0.728488,513
881,729320,0,0.72932,514
882,730156,0,0.730156,515
883,730988,0,0.730988,513
884,731824,0,0.731824,509
885,732656,0,0.732656,511
886,733488,0,0.733488,511
887,734324,0,0.734324,511
888,735156,0,0.735156,513
889,735988,0,0.735988,512
890,736824,0,0.736824,512
891,737656,0,0.737656,511
892,738488,0,0.738488,509
893,739324,0,0.739324,507
894,740156,0,0.740156,509
895,740988,0,0.740988,508
896,741824,0,0.741824,510
897,742656,0,0.742656,510
898,743488,0,0.743488,509
899,744324,0,0.744324,509
900,745156,0,0.745156,514
901,745988,0,0.745988,514
902,746824,0,0.746824,513
903,747656,0,0.747656,510
904,748488,0,0.748488,510
905,749324,0,0.749324,510
906,750156,0,0.750156,513
907,750988,0,0.750988,513
908,751824,0,0.751824,512
909,752656,0,0.752656,511
910,753488,0,0.753488,512
911,754324,0,0.754324,512
912,755156,0,0.755156,514
913,755988,0,0.755988,513
914,756824,0,0.756824,512
915,757656,0,0.757656,511
916,758488,0,0.758488,510
917,759324,0,0.759324,511
918,760156,0,0.760156,511
919,760992,0,0.760992,513
920,761824,0,0.761824,512
921,762656,0,0.762656,513
922,763492,0,0.763492,512
923,764324,0,0.764324,510
924,765156,0,0.765156,508
925,765992,0,0.765992,509
926,766824,0,0.766824,509
927,767656,0,0.767656,510
928,768492,0,0.768492,509
929,769324,0,0.769324,510
930,770156,0,0.770156,512
931,770992,0,0.770992,513
932,771824,0,0.771824,516
933,772656,0,0.772656,515
934,773492,0,0.773492,511
935,774324,0,0.774324,509
936,775156,0,0.775156,507
937,775992,0,0.775992,510
938,776824,0,0.776824,513
939,777656,0,0.777656,512
940,778492,0,0.778492,514
941,779324,0,0.779324,512
942,780156,0,0.780156,511
943,780992,0,0.780992,511
944,781824,0,0.781824,511
945,782656,0,0.782656,510
946,783492,0,0.783492,507
947,784324,0,0.784324,507
948,785156,0,0.785156,507
949,785992,0,0.785992,508
950,786824,0,0.786824,511
951,787660,0,0.78766,512
952,788492,0,0.788492,512
953,789324,0,0.789324,512
954,790160,0,0.79016,513
955,790992,0,0.790992,508
956,791824,0,0.791824,508
957,792660,0,0.79266,509
958,793492,0,0.793492,511
959,794324,0,0.794324,511
960,795160,0,0.79516,512
961,795992,0,0.795992,509
962,796824,0,0.796824,510
963,797660,0,0.79766,513
964,798492,0,0.798492,515
965,799324,0,0.799324,514
966,800160,0,0.80016,511
967,800992,0,0.800992,506
968,801824,0,0.801824,507
969,802660,0,0.80266,510
970,803492,0,0.803492,512
971,804324,0,0.804324,514
972,805160,0,0.80516,514
973,805992,0,0.805992,514
974,806824,0,0.806824,512
975,807660,0,0.80766,512
976,808492,0,0.808492,510
977,809324,0,0.809324,510
978,810160,0,0.81016,509
979,810992,0,0.810992,509
980,811824,0,0.811824,508
981,812660,0,0.81266,509
982,813492,0,0.813492,511
983,814328,0,0.814328,513
984,815160,0,0.81516,516
985,815992,0,0.815992,515
986,816828,0,0.816828,510
987,817660,0,0.81766,507
988,818492,0,0.818492,507
989,819328,0,0.819328,508
990,820160,0,0.82016,512
991,820992,0,0.820992,513
992,821828,0,0.821828,513
993,822660,0,0.82266,513
994,823492,0,0.823492,512
995,824328,0,0.824328,512
996,825160,0,0.82516,514
997,825992,0,0.825992,512
998,826828,0,0.826828,510
999,827660,0,0.82766,507
1000,828492,0,0.828492,507
1001,829328,0,0.829328,509
1002,830160,0,0.83016,511
1003,830992,0,0.830992,515
1004,831828,0,0.831828,515
1005,832660,0,0.83266,513
1006,833492,0,0.833492,511
1007,834328,0,0.834328,510
1008,835160,0,0.83516,509
1009,835992,0,0.835992,512
1010,836828,0,0.836828,512
1011,837660,0,0.83766,512
1012,838496,0,0.838496,510
1013,839328,0,0.839328,511
1014,840160,0,0.84016,512
1015,840996,0,0.840996,514
1016,841828,0,0.841828,514
1017,842660,0,0.84266,511
1018,843496,0,0.843496,509
1019,844328,0,0.844328,508
1020,845160,0,0.84516,510
1021,845996,0,0.845996,511
1022,846828,0,0.846828,515
1023,847660,0,0.84766,514
1024,848496,0,0.848496,511
1025,849328,0,0.849328,511
1026,850160,0,0.85016,510
1027,850996,0,0.850996,510
1028,851828,0,0.851828,513
1029,852660,0,0.85266,512
1030,853496,0,0.853496,511
1031,854328,0,0.854328,510
1032,855160,0,0.85516,511
1033,855996,0,0.855996,512
1034,856828,0,0.856828,514
1035,857660,0,0.85766,512
1036,858496,0,0.858496,512
1037,859328,0,0.859328,510
1038,860168,0,0.860168,511
1039,860996,0,0.860996,511
1040,861828,0,0.861828,511
1041,862660,0,0.86266,512
1042,863496,0,0.863496,510
1043,864328,0,0.864328,512
1044,865160,0,0.86516,510
1045,865996,0,0.865996,509
1046,866828,0,0.866828,512
1047,867664,0,0.867664,512
1048,868496,0,0.868496,512
1049,869328,0,0.869328,512
1050,870164,0,0.870164,510
1051,870996,0,0.870996,510
1052,871828,0,0.871828,512
1053,872664,0,0.872664,514
1054,873496,0,0.873496,512
1055,874328,0,0.874328,512
1056,875164,0,0.875164,509
1057,875996,0,0.875996,510
1058,876828,0,0.876828,512
1059,877664,0,0.877664,514
1060,878496,0,0.878496,514
1061,879328,0,0.879328,511
1062,880164,0,0.880164,512
1063,880996,0,0.880996,512
1064,881828,0,0.881828,512
1065,882664,0,0.882664,514
1066,883496,0,0.883496,513
1067,884328,0,0.884328,510
1068,885164,0,0.885164,510
1069,885996,0,0.885996,510
1070,886828,0,0.886828,510
1071,887664,0,0.887664,512
1072,888496,0,0.888496,512
1073,889328,0,0.889328,511
1074,890164,0,0.890164,509
1075,890996,0,0.890996,510
1076,891828,0,0.891828,511
1077,892664,0,0.892664,510
1078,893496,0,0.893496,511
1079,894332,0,0.894332,511
1080,895164,0,0.895164,510
1081,895996,0,0.895996,510
1082,896832,0,0.896832,510
1083,897664,0,0.897664,512
1084,898496,0,0.898496,512
1085,899332,0,0.899332,511
1086,900164,0,0.900164,509
1087,900996,0,0.900996,510
1088,901832,0,0.901832,510
1089,902664,0,0.902664,511
1090,903496,0,0.903496,511
1091,904332,0,0.904332,511
1092,905164,0,0.905164,512
1093,905996,0,0.905996,510
1094,906832,0,0.906832,512
1095,907664,0,0.907664,511
1096,908496,0,0.908496,513
1097,909332,0,0.909332,509
1098,910164,0,0.910164,512
1099,910996,0,0.910996,508
1100,911832,0,0.911832,510
1101,912664,0,0.912664,510
1102,913496,0,0.913496,513
1103,914332,0,0.914332,509
1104,915164,0,0.915164,513
1105,915996,0,0.915996,510
1106,916832,0,0.916832,511
1107,917664,0,0.917664,510
1108,918500,0,0.9185,511
1109,919332,0,0.919332,510
1110,920164,0,0.920164,513
1111,921000,0,0.921,512
1112,921832,0,0.921832,512
1113,922664,0,0.922664,513
1114,923500,0,0.9235,513
1115,924332,0,0.924332,511
1116,925164,0,0.925164,512
1117,926000,0,0.926,509
1118,926832,0,0.926832,510
1119,927664,0,0.927664,510
1120,928500,0,0.9285,510
1121,929332,0,0.929332,509
1122,930164,0,0.930164,513
1123,931000,0,0.931,510
1124,931832,0,0.931832,510
1125,932664,0,0.932664,510
1126,933500,0,0.9335,510
1127,934332,0,0.934332,510
1128,935164,0,0.935164,511
1129,936000,0,0.936,511
1130,936832,0,0.936832,511
1131,937664,0,0.937664,509
1132,938500,0,0.9385,509
1133,939332,0,0.939332,513
1134,940164,0,0.940164,512
1135,941000,0,0.941,513
1136,941832,0,0.941832,511
1137,942664,0,0.942664,510
1138,943500,0,0.9435,509
1139,944332,0,0.944332,511
1140,945164,0,0.945164,511
1141,946000,0,0.946,512
1142,946832,0,0.946832,511
1143,947668,0,0.947668,511
1144,948500,0,0.9485,512
1145,949332,0,0.949332,509
1146,950168,0,0.950168,513
1147,951000,0,0.951,510
1148,951832,0,0.951832,510
1149,952668,0,0.952668,510
1150,953500,0,0.9535,507
1151,954332,0,0.954332,510
1152,955168,0,0.955168,512
1153,956000,0,0.956,512
1154,956832,0,0.956832,512
1155,957668,0,0.957668,508
1156,958500,0,0.9585,509
1157,959332,0,0.959332,512
1158,960168,0,0.960168,511
1159,961000,0,0.961,513
1160,961832,0,0.961832,512
1161,962668,0,0.962668,510
1162,963500,0,0.9635,512
1163,964332,0,0.964332,510
1164,965168,0,0.965168,510
1165,966000,0,0.966,513
1166,966832,0,0.966832,510
1167,967668,0,0.967668,512
1168,968500,0,0.9685,509
1169,969332,0,0.969332,509
1170,970168,0,0.970168,513
1171,971000,0,0.971,511
1172,971832,0,0.971832,514
1173,972668,0,0.972668,511
1174,973500,0,0.9735,510
1175,974336,0,0.974336,513
1176,975168,0,0.975168,509
1177,976000,0,0.976,513
1178,976836,0,0.976836,513
1179,977668,0,0.977668,511
1180,978500,0,0.9785,511
1181,979336,0,0.979336,509
1182,980168,0,0.980168,511
1183,981000,0,0.981,513
1184,981836,0,0.981836,512
1185,982668,0,0.982668,514
1186,983500,0,0.9835,509
1187,984336,0,0.984336,510
1188,985168,0,0.985168,510
1189,986000,0,0.986,510
1190,986836,0,0.986836,513
1191,987668,0,0.987668,511
1192,988500,0,0.9885,512
1193,989336,0,0.989336,511
1194,990168,0,0.990168,511
1195,991000,0,0.991,512
1196,991836,0,0.991836,510
1197,992668,0,0.992668,511
1198,993500,0,0.9935,512
1199,994336,0,0.994336,509
1200,995168,0,0.995168,511
1201,996000,0,0.996,510
1202,996836,0,0.996836,512
1203,997668,0,0.997668,513
1204,998500,0,0.9985,511
1205,999336,0,0.999336,511
1206,1000168,0,1.000168,509
1207,1001004,0,1.001004,512
1208,1001836,0,1.001836,511
1209,1002668,0,1.002668,510
1210,1003504,0,1.003504,513
1211,1004336,0,1.004336,510
1212,1005168,0,1.005168,512
1213,1006004,0,1.006004,512
1214,1006836,0,1.006836,509
1215,1007668,0,1.007668,511
1216,1008504,0,1.008504,508
1217,1009336,0,1.009336,513
1218,1010168,0,1.010168,511
1219,1011004,0,1.011004,509
1220,1011836,0,1.011836,512
1221,1012668,0,1.012668,509
1222,1013504,0,1.013504,513
1223,1014336,0,1.014336,514
1224,1015168,0,1.015168,512
1225,1016004,0,1.016004,512
1226,1016840,0,1.01684,508
1227,1017668,0,1.017668,512
1228,1018504,0,1.018504,511
1229,1019336,0,1.019336,511
1230,1020168,0,1.020168,514
1231,1021004,0,1.021004,510
1232,1021836,0,1.021836,512
1233,1022668,0,1.022668,511
1234,1023504,0,1.023504,512
1235,1024336,0,1.024336,511
1236,1025168,0,1.025168,509
1237,1026004,0,1.026004,511
1238,1026836,0,1.026836,511
1239,1027672,0,1.027672,510
1240,1028504,0,1.028504,509
1241,1029336,0,1.029336,508
1242,1030172,0,1.030172,512
1243,1031004,0,1.031004,512
1244,1031836,0,1.031836,512
1245,1032672,0,1.032672,511
1246,1033504,0,1.033504,509
1247,1034336,0,1.034336,508
1248,1035172,0,1.035172,510
1249,1036004,0,1.036004,511
1250,1036836,0,1.036836,510
1251,1037672,0,1.037672,512
1252,1038504,0,1.038504,513
1253,1039336,0,1.039336,511
1254,1040172,0,1.040172,512
1255,1041004,0,1.041004,511
1256,1041836,0,1.041836,513
1257,1042672,0,1.042672,512
1258,1043504,0,1.043504,512
1259,1044336,0,1.044336,512
1260,1045172,0,1.045172,509
1261,1046004,0,1.046004,510
1262,1046836,0,1.046836,512
1263,1047672,0,1.047672,513
1264,1048504,0,1.048504,513
1265,1049336,0,1.049336,510
1266,1050172,0,1.050172,512
1267,1051004,0,1.051004,509
1268,1051840,0,1.05184,509
1269,1052672,0,1.052672,511
1270,1053504,0,1.053504,511
1271,1054340,0,1.05434,514
1272,1055172,0,1.055172,512
1273,1056004,0,1.056004,513
1274,1056840,0,1.05684,511
1275,1057672,0,1.057672,511
1276,1058504,0,1.058504,512
1277,1059340,0,1.05934,509
1278,1060172,0,1.060172,511
1279,1061004,0,1.061004,510
1280,1061840,0,1.06184,510
1281,1062672,0,1.062672,511
1282,1063504,0,1.063504,510
1283,1064340,0,1.06434,511
1284,1065172,0,1.065172,509
1285,1066004,0,1.066004,512
1286,1066840,0,1.06684,512
1287,1067672,0,1.067672,509
1288,1068504,0,1.068504,511
1289,1069340,0,1.06934,508
1290,1070172,0,1.070172,510
1291,1071004,0,1.071004,509
1292,1071840,0,1.07184,510
1293,1072672,0,1.072672,513
1294,1073504,0,1.073504,510
1295,1074340,0,1.07434,514
1296,1075172,0,1.075172,512
1297,1076004,0,1.076004,510
1298,1076840,0,1.07684,511
1299,1077672,0,1.077672,509
1300,1078508,0,1.078508,513
1301,1079340,0,1.07934,511
1302,1080172,0,1.080172,512
1303,1081008,0,1.081008,512
1304,1081840,0,1.08184,512
1305,1082672,0,1.082672,513
1306,1083508,0,1.083508,509
1307,1084340,0,1.08434,509
1308,1085172,0,1.085172,508
1309,1086008,0,1.086008,512
1310,1086840,0,1.08684,513
1311,1087672,0,1.087672,511
1312,1088508,0,1.088508,512
1313,1089340,0,1.08934,510
1314,1090172,0,1.090172,513
1315,1091008,0,1.091008,514
1316,1091840,0,1.09184,510
1317,1092672,0,1.092672,512
1318,1093508,0,1.093508,509
1319,1094340,0,1.09434,510
1320,1095172,0,1.095172,512
1321,1096008,0,1.096008,510
1322,1096840,0,1.09684,511
1323,1097672,0,1.097672,509
1324,1098508,0,1.098508,513
1325,1099340,0,1.09934,512
1326,1100172,0,1.100172,508
1327,1101008,0,1.101008,512
1328,1101840,0,1.10184,509
1329,1102672,0,1.102672,511
1330,1103508,0,1.103508,511
1331,1104340,0,1.10434,510
1332,1105172,0,1.105172,512
1333,1106008,0,1.106008,508
1334,1106840,0,1.10684,513
1335,1107676,0,1.107676,512
1336,1108508,0,1.108508,510
1337,1109340,0,1.10934,513
1338,1110176,0,1.110176,508
1339,1111008,0,1.111008,511
1340,1111840,0,1.11184,510
1341,1112676,0,1.112676,510
1342,1113508,0,1.113508,515
1343,1114340,0,1.11434,512
1344,1115176,0,1.115176,513
1345,1116008,0,1.116008,511
1346,1116840,0,1.11684,510
1347,1117676,0,1.117676,511
1348,1118508,0,1.118508,509
1349,1119340,0,1.11934,512
1350,1120176,0,1.120176,511
1351,1121008,0,1.121008,508
1352,1121840,0,1.12184,511
1353,1122676,0,1.122676,511
1354,1123508,0,1.123508,509
1355,1124340,0,1.12434,510
1356,1125176,0,1.125176,510
1357,1126008,0,1.126008,511
1358,1126840,0,1.12684,511
1359,1127676,0,1.127676,510
1360,1128508,0,1.128508,512
1361,1129340,0,1.12934,509
1362,1130176,0,1.130176,511
1363,1131008,0,1.131008,515
1364,1131840,0,1.13184,512
1365,1132676,0,1.132676,513
1366,1133508,0,1.133508,509
1367,1134344,0,1.134344,510
1368,1135176,0,1.135176,511
1369,1136008,0,1.136008,511
1370,1136844,0,1.136844,513
1371,1137676,0,1.137676,509
1372,1138508,0,1.138508,509
1373,1139344,0,1.139344,510
1374,1140176,0,1.140176,511
1375,1141008,0,1.141008,511
1376,1141844,0,1.141844,510
1377,1142676,0,1.142676,510
1378,1143508,0,1.143508,511
1379,1144344,0,1.144344,511
1380,1145176,0,1.145176,513
1381,1146008,0,1.146008,512
1382,1146844,0,1.146844,511
1383,1147676,0,1.147676,509
1384,1148508,0,1.148508,510
1385,1149344,0,1.149344,510
1386,1150176,0,1.150176,511
1387,1151008,0,1.151008,510
1388,1151844,0,1.151844,511
1389,1152676,0,1.152676,510
1390,1153508,0,1.153508,511
1391,1154344,0,1.154344,512
1392,1155176,0,1.155176,513
1393,1156008,0,1.156008,511
1394,1156844,0,1.156844,511
1395,1157676,0,1.157676,511
1396,1158512,0,1.158512,507
1397,1159344,0,1.159344,507
1398,1160176,0,1.160176,508
1399,1161012,0,1.161012,508
1400,1161844,0,1.161844,510
1401,1162676,0,1.162676,514
1402,1163512,0,1.163512,515
1403,1164344,0,1.164344,514
1404,1165176,0,1.165176,513
1405,1166012,0,1.166012,512
1406,1166844,0,1.166844,509
1407,1167676,0,1.167676,509
1408,1168512,0,1.168512,508
1409,1169344,0,1.169344,508
1410,1170176,0,1.170176,509
1411,1171012,0,1.171012,508
1412,1171844,0,1.171844,510
1413,1172676,0,1.172676,512
1414,1173512,0,1.173512,514
1415,1174344,0,1.174344,513
1416,1175176,0,1.175176,511
1417,1176012,0,1.176012,510
1418,1176844,0,1.176844,509
1419,1177676,0,1.177676,509
1420,1178512,0,1.178512,511
1421,1179344,0,1.179344,509
1422,1180176,0,1.180176,510
1423,1181012,0,1.181012,510
1424,1181844,0,1.181844,510
1425,1182676,0,1.182676,511
1426,1183512,0,1.183512,514
1427,1184344,0,1.184344,514
1428,1185176,0,1.185176,513
1429,1186012,0,1.186012,511
1430,1186844,0,1.186844,509
1431,1187680,0,1.18768,509
1432,1188512,0,1.188512,509
1433,1189344,0,1.189344,512
1434,1190180,0,1.19018,512
1435,1191012,0,1.191012,512
1436,1191844,0,1.191844,511
1437,1192680,0,1.19268,510
1438,1193512,0,1.193512,510
1439,1194344,0,1.194344,511
1440,1195180,0,1.19518,511
1441,1196012,0,1.196012,511
1442,1196844,0,1.196844,509
1443,1197680,0,1.19768,509
1444,1198512,0,1.198512,509
1445,1199344,0,1.199344,509
1446,1200180,0,1.20018,510
1447,1201012,0,1.201012,511
1448,1201844,0,1.201844,510
1449,1202680,0,1.20268,512
1450,1203512,0,1.203512,512
1451,1204344,0,1.204344,512
1452,1205180,0,1.20518,510
1453,1206012,0,1.206012,510
1454,1206844,0,1.206844,511
1455,1207680,0,1.20768,509
1456,1208512,0,1.208512,510
1457,1209352,0,1.209352,510
1458,1210180,0,1.21018,512
1459,1211012,0,1.211012,514
1460,1211844,0,1.211844,513
1461,1212680,0,1.21268,513
1462,1213512,0,1.213512,513
1463,1214348,0,1.214348,511
1464,1215180,0,1.21518,509
1465,1216012,0,1.216012,510
1466,1216848,0,1.216848,513
1467,1217680,0,1.21768,513
1468,1218512,0,1.218512,508
1469,1219348,0,1.219348,512
1470,1220180,0,1.22018,513
1471,1221012,0,1.221012,509
1472,1221848,0,1.221848,508
1473,1222680,0,1.22268,513
1474,1223512,0,1.223512,514
1475,1224348,0,1.224348,508
1476,1225180,0,1.22518,507
1477,1226012,0,1.226012,511
1478,1226848,0,1.226848,510
1479,1227680,0,1.22768,508
1480,1228512,0,1.228512,508
1481,1229348,0,1.229348,513
1482,1230180,0,1.23018,514
1483,1231012,0,1.231012,510
1484,1231848,0,1.231848,512
1485,1232680,0,1.23268,514
1486,1233512,0,1.233512,512
1487,1234348,0,1.234348,508
1488,1235180,0,1.23518,510
1489,1236012,0,1.236012,513
1490,1236848,0,1.236848,512
1491,1237680,0,1.23768,509
1492,1238512,0,1.238512,511
1493,1239348,0,1.239348,514
1494,1240180,0,1.24018,515
1495,1241016,0,1.241016,510
1496,1241848,0,1.241848,512
1497,1242680,0,1.24268,514
1498,1243516,0,1.243516,512
1499,1244348,0,1.244348,509
1500,1245180,0,1.24518,511
1501,1246016,0,1.246016,514
1502,1246848,0,1.246848,512
1503,1247680,0,1.24768,506
1504,1248516,0,1.248516,511
1505,1249348,0,1.249348,513
1506,1250180,0,1.25018,509
1507,1251016,0,1.251016,508
1508,1251848,0,1.251848,512
1509,1252680,0,1.25268,514
1510,1253516,0,1.253516,511
1511,1254348,0,1.254348,506
1512,1255180,0,1.25518,510
1513,1256016,0,1.256016,512
1514,1256848,0,1.256848,512
1515,1257680,0,1.25768,510
1516,1258516,0,1.258516,511
1517,1259348,0,1.259348,512
1518,1260180,0,1.26018,514
1519,1261016,0,1.261016,514
1520,1261848,0,1.261848,513
1521,1262680,0,1.26268,513
1522,1263516,0,1.263516,512
1523,1264348,0,1.264348,510
1524,1265184,0,1.265184,510
1525,1266016,0,1.266016,512
1526,1266848,0,1.266848,512
1527,1267684,0,1.267684,510
1528,1268516,0,1.268516,511
1529,1269348,0,1.269348,509
1530,1270184,0,1.270184,512
1531,1271016,0,1.271016,512
1532,1271848,0,1.271848,514
1533,1272684,0,1.272684,515
1534,1273516,0,1.273516,513
1535,1274348,0,1.274348,510
1536,1275184,0,1.275184,508
1537,1276016,0,1.276016,508
1538,1276848,0,1.276848,510
1539,1277684,0,1.277684,512
1540,1278516,0,1.278516,514
1541,1279348,0,1.279348,514
1542,1280184,0,1.280184,509
1543,1281016,0,1.281016,510
1544,1281848,0,1.281848,510
1545,1282684,0,1.282684,510
1546,1283516,0,1.283516,508
1547,1284348,0,1.284348,509
1548,1285184,0,1.285184,509
1549,1286016,0,1.286016,509
1550,1286848,0,1.286848,509
1551,1287684,0,1.287684,513
1552,1288516,0,1.288516,513
1553,1289348,0,1.289348,513
1554,1290184,0,1.290184,510
1555,1291016,0,1.291016,511
1556,1291848,0,1.291848,509
1557,1292684,0,1.292684,510
1558,1293516,0,1.293516,510
1559,1294352,0,1.294352,510
1560,1295184,0,1.295184,511
1561,1296016,0,1.296016,512
1562,1296852,0,1.296852,510
1563,1297684,0,1.297684,510
1564,1298516,0,1.298516,511
1565,1299352,0,1.299352,513
1566,1300184,0,1.300184,511
1567,1301016,0,1.301016,511
1568,1301852,0,1.301852,511
1569,1302684,0,1.302684,509
1570,1303516,0,1.303516,508
1571,1304352,0,1.304352,512
1572,1305184,0,1.305184,512
1573,1306016,0,1.306016,513
1574,1306852,0,1.306852,514
1575,1307684,0,1.307684,511
1576,1308516,0,1.308516,508
1577,1309352,0,1.309352,510
1578,1310184,0,1.310184,509
1579,1311016,0,1.311016,509
1580,1311852,0,1.311852,511
1581,1312684,0,1.312684,511
1582,1313516,0,1.313516,510
1583,1314352,0,1.314352,512
1584,1315184,0,1.315184,512
1585,1316016,0,1.316016,513
1586,1316852,0,1.316852,511
1587,1317684,0,1.317684,511
1588,1318520,0,1.31852,511
1589,1319352,0,1.319352,511
1590,1320184,0,1.320184,510
1591,1321020,0,1.32102,509
1592,1321852,0,1.321852,511
1593,1322684,0,1.322684,513
1594,1323520,0,1.32352,510
1595,1324352,0,1.324352,513
1596,1325184,0,1.325184,512
1597,1326020,0,1.32602,510
1598,1326852,0,1.326852,514
1599,1327684,0,1.327684,514
1600,1328520,0,1.32852,512
1601,1329352,0,1.329352,512
1602,1330184,0,1.330184,510
1603,1331020,0,1.33102,510
1604,1331852,0,1.331852,510
1605,1332684,0,1.332684,512
1606,1333520,0,1.33352,508
1607,1334352,0,1.334352,510
1608,1335184,0,1.335184,512
1609,1336020,0,1.33602,514
1610,1336852,0,1.336852,515
1611,1337684,0,1.337684,512
1612,1338520,0,1.33852,512
1613,1339352,0,1.339352,511
1614,1340184,0,1.340184,511
1615,1341020,0,1.34102,511
1616,1341852,0,1.341852,512
1617,1342684,0,1.342684,511
1618,1343520,0,1.34352,510
1619,1344352,0,1.344352,511
1620,1345188,0,1.345188,511
1621,1346020,0,1.34602,511
1622,1346852,0,1.346852,511
1623,1347688,0,1.347688,513
1624,1348520,0,1.34852,511
1625,1349352,0,1.349352,511
1626,1350188,0,1.350188,510
1627,1351020,0,1.35102,510
1628,1351852,0,1.351852,510
1629,1352688,0,1.352688,511
1630,1353520,0,1.35352,511
1631,1354352,0,1.354352,513
1632,1355188,0,1.355188,512
1633,1356020,0,1.35602,513
1634,1356852,0,1.356852,510
1635,1357688,0,1.357688,512
1636,1358520,0,1.35852,510
1637,1359352,0,1.359352,509
1638,1360188,0,1.360188,507
1639,1361020,0,1.36102,509
1640,1361852,0,1.361852,509
1641,1362688,0,1.362688,511
1642,1363520,0,1.36352,510
1643,1364352,0,1.364352,513
1644,1365188,0,1.365188,510
1645,1366024,0,1.366024,511
1646,1366852,0,1.366852,508
1647,1367688,0,1.367688,510
1648,1368520,0,1.36852,510
1649,1369352,0,1.369352,510
1650,1370188,0,1.370188,509
1651,1371020,0,1.37102,511
1652,1371852,0,1.371852,511
1653,1372688,0,1.372688,512
1654,1373520,0,1.37352,510
1655,1374356,0,1.374356,512
1656,1375188,0,1.375188,511
1657,1376020,0,1.37602,511
1658,1376856,0,1.376856,509
1659,1377688,0,1.377688,510
1660,1378520,0,1.37852,511
1661,1379356,0,1.379356,511
1662,1380188,0,1.380188,510
1663,1381020,0,1.38102,513
1664,1381856,0,1.381856,512
1665,1382688,0,1.382688,510
1666,1383520,0,1.38352,511
1667,1384356,0,1.384356,514
1668,1385188,0,1.385188,509
1669,1386020,0,1.38602,509
1670,1386856,0,1.386856,512
1671,1387688,0,1.387688,511
1672,1388520,0,1.38852,506
1673,1389356,0,1.389356,511
1674,1390188,0,1.390188,513
1675,1391020,0,1.39102,512
1676,1391856,0,1.391856,508
1677,1392688,0,1.392688,514
1678,1393520,0,1.39352,514
1679,1394356,0,1.394356,511
1680,1395188,0,1.395188,509
1681,1396020,0,1.39602,513
1682,1396856,0,1.396856,513
1683,1397688,0,1.397688,508
1684,1398520,0,1.39852,509
1685,1399356,0,1.399356,512
1686,1400188,0,1.400188,512
1687,1401024,0,1.401024,510
1688,1401856,0,1.401856,511
1689,1402688,0,1.402688,515
1690,1403524,0,1.403524,512
1691,1404356,0,1.404356,508
1692,1405188,0,1.405188,512
1693,1406024,0,1.406024,513
1694,1406856,0,1.406856,511
1695,1407688,0,1.407688,510
1696,1408524,0,1.408524,511
1697,1409356,0,1.409356,509
1698,1410188,0,1.410188,510
1699,1411024,0,1.411024,511
1700,1411856,0,1.411856,513
1701,1412688,0,1.412688,512
1702,1413524,0,1.413524,513
1703,1414356,0,1.414356,510
1704,1415188,0,1.415188,512
1705,1416024,0,1.416024,510
1706,1416856,0,1.416856,510
1707,1417688,0,1.417688,510
1708,1418524,0,1.418524,511
1709,1419356,0,1.419356,509
1710,1420188,0,1.420188,511
1711,1421024,0,1.421024,511
1712,1421856,0,1.421856,513
1713,1422688,0,1.422688,513
1714,1423524,0,1.423524,512
1715,1424356,0,1.424356,509
1716,1425188,0,1.425188,511
1717,1426024,0,1.426024,510
1718,1426856,0,1.426856,512
1719,1427692,0,1.427692,512
1720,1428524,0,1.428524,512
1721,1429356,0,1.429356,511
1722,1430192,0,1.430192,512
1723,1431024,0,1.431024,513
1724,1431856,0,1.431856,513
1725,1432692,0,1.432692,514
1726,1433524,0,1.433524,512
1727,1434356,0,1.434356,511
1728,1435192,0,1.435192,509
1729,1436024,0,1.436024,511
1730,1436856,0,1.436856,510
1731,1437692,0,1.437692,513
1732,1438524,0,1.438524,510
1733,1439356,0,1.439356,510
1734,1440192,0,1.440192,508
1735,1441024,0,1.441024,512
1736,1441856,0,1.441856,510
1737,1442692,0,1.442692,513
1738,1443524,0,1.443524,511
1739,1444356,0,1.444356,512
1740,1445192,0,1.445192,510
1741,1446024,0,1.446024,510
1742,1446856,0,1.446856,513
1743,1447692,0,1.447692,512
1744,1448524,0,1.448524,512
1745,1449356,0,1.449356,511
1746,1450192,0,1.450192,513
1747,1451024,0,1.451024,509
1748,1451856,0,1.451856,510
1749,1452692,0,1.452692,509
1750,1453524,0,1.453524,511
1751,1454360,0,1.45436,510
1752,1455192,0,1.455192,512
1753,1456024,0,1.456024,511
1754,1456860,0,1.45686,511
1755,1457692,0,1.457692,510
1756,1458524,0,1.458524,510
1757,1459360,0,1.45936,513
1758,1460192,0,1.460192,510
1759,1461024,0,1.461024,512
1760,1461860,0,1.46186,509
1761,1462692,0,1.462692,512
1762,1463524,0,1.463524,508
1763,1464360,0,1.46436,514
1764,1465192,0,1.465192,510
1765,1466024,0,1.466024,511
1766,1466860,0,1.46686,509
1767,1467692,0,1.467692,509
1768,1468524,0,1.468524,511
1769,1469360,0,1.46936,510
1770,1470192,0,1.470192,514
1771,1471024,0,1.471024,511
1772,1471860,0,1.47186,513
1773,1472692,0,1.472692,510
1774,1473524,0,1.473524,512
1775,1474360,0,1.47436,510
1776,1475192,0,1.475192,514
1777,1476024,0,1.476024,510
1778,1476860,0,1.47686,511
1779,1477692,0,1.477692,511
1780,1478524,0,1.478524,510
1781,1479360,0,1.47936,512
1782,1480192,0,1.480192,511
1783,1481028,0,1.481028,514
1784,1481860,0,1.48186,510
1785,1482692,0,1.482692,514
1786,1483528,0,1.483528,510
1787,1484360,0,1.48436,511
1788,1485192,0,1.485192,511
1789,1486028,0,1.486028,512
1790,1486860,0,1.48686,513
1791,1487692,0,1.487692,512
1792,1488528,0,1.488528,514
1793,1489360,0,1.48936,509
1794,1490192,0,1.490192,513
1795,1491028,0,1.491028,509
1796,1491860,0,1.49186,511
1797,1492692,0,1.492692,510
1798,1493528,0,1.493528,510
1799,1494360,0,1.49436,507
1800,1495192,0,1.495192,509
1801,1496028,0,1.496028,511
1802,1496860,0,1.49686,510
1803,1497692,0,1.497692,513
1804,1498528,0,1.498528,513
1805,1499360,0,1.49936,513
1806,1500192,0,1.500192,509
1807,1501028,0,1.501028,512
1808,1501860,0,1.50186,512
1809,1502692,0,1.502692,512
1810,1503528,0,1.503528,510
1811,1504360,0,1.50436,509
1812,1505192,0,1.505192,509
1813,1506028,0,1.506028,508
1814,1506860,0,1.50686,511
1815,1507696,0,1.507696,508
1816,1508528,0,1.508528,510
1817,1509360,0,1.50936,510
1818,1510196,0,1.510196,509
1819,1511028,0,1.511028,509
1820,1511860,0,1.51186,510
1821,1512696,0,1.512696,510
1822,1513528,0,1.513528,509
1823,1514360,0,1.51436,511
1824,1515196,0,1.515196,511
1825,1516028,0,1.516028,512
1826,1516860,0,1.51686,510
1827,1517696,0,1.517696,512
1828,1518528,0,1.518528,508
1829,1519360,0,1.51936,513
1830,1520196,0,1.520196,514
1831,1521028,0,1.521028,515
1832,1521860,0,1.52186,512
1833,1522696,0,1.522696,511
1834,1523528,0,1.523528,510
1835,1524360,0,1.52436,508
1836,1525196,0,1.525196,512
1837,1526028,0,1.526028,512
1838,1526860,0,1.52686,512
1839,1527696,0,1.527696,507
1840,1528528,0,1.528528,511
1841,1529360,0,1.52936,513
1842,1530196,0,1.530196,513
1843,1531028,0,1.531028,513
1844,1531864,0,1.531864,508
1845,1532696,0,1.532696,510
1846,1533528,0,1.533528,511
1847,1534364,0,1.534364,510
1848,1535196,0,1.535196,508
1849,1536028,0,1.536028,510
1850,1536864,0,1.536864,510
1851,1537696,0,1.537696,517
1852,1538528,0,1.538528,512
1853,1539364,0,1.539364,512
1854,1540196,0,1.540196,510
1855,1541028,0,1.541028,508
1856,1541864,0,1.541864,514
1857,1542696,0,1.542696,511
1858,1543528,0,1.543528,508
1859,1544364,0,1.544364,508
1860,1545196,0,1.545196,508
1861,1546028,0,1.546028,512
1862,1546864,0,1.546864,517
1863,1547696,0,1.547696,513
1864,1548528,0,1.548528,514
1865,1549364,0,1.549364,510
1866,1550196,0,1.550196,512
1867,1551028,0,1.551028,515
1868,1551864,0,1.551864,507
1869,1552696,0,1.552696,512
1870,1553528,0,1.553528,508
1871,1554364,0,1.554364,508
1872,1555196,0,1.555196,511
1873,1556028,0,1.556028,510
1874,1556864,0,1.556864,511
1875,1557696,0,1.557696,512
1876,1558536,0,1.558536,511
1877,1559364,0,1.559364,514
1878,1560196,0,1.560196,512
1879,1561032,0,1.561032,508
1880,1561864,0,1.561864,511
1881,1562696,0,1.562696,508
1882,1563532,0,1.563532,513
1883,1564364,0,1.564364,512
1884,1565196,0,1.565196,512
1885,1566032,0,1.566032,510
1886,1566864,0,1.566864,510
1887,1567696,0,1.567696,511
1888,1568532,0,1.568532,511
1889,1569364,0,1.569364,514
1890,1570196,0,1.570196,513
1891,1571032,0,1.571032,512
1892,1571864,0,1.571864,512
1893,1572696,0,1.572696,514
1894,1573532,0,1.573532,511
1895,1574364,0,1.574364,510
1896,1575196,0,1.575196,509
1897,1576032,0,1.576032,508
1898,1576864,0,1.576864,509
1899,1577696,0,1.577696,509
1900,1578532,0,1.578532,512
1901,1579364,0,1.579364,512
1902,1580196,0,1.580196,513
1903,1581032,0,1.581032,513
1904,1581864,0,1.581864,511
1905,1582696,0,1.582696,510
1906,1583532,0,1.583532,509
1907,1584364,0,1.584364,509
1908,1585200,0,1.5852,509
1909,1586032,0,1.586032,512
1910,1586864,0,1.586864,511
1911,1587700,0,1.5877,513
1912,1588532,0,1.588532,512
1913,1589364,0,1.589364,512
1914,1590200,0,1.5902,514
1915,1591032,0,1.591032,512
1916,1591864,0,1.591864,511
1917,1592700,0,1.5927,508
1918,1593532,0,1.593532,511
1919,1594364,0,1.594364,510
1920,1595200,0,1.5952,511
1921,1596032,0,1.596032,511
1922,1596864,0,1.596864,515
1923,1597700,0,1.5977,512
1924,1598532,0,1.598532,510
1925,1599364,0,1.599364,511
1926,1600200,0,1.6002,509
1927,1601032,0,1.601032,512
1928,1601864,0,1.601864,509
1929,1602700,0,1.6027,513
1930,1603532,0,1.603532,509
1931,1604364,0,1.604364,511
1932,1605200,0,1.6052,510
1933,1606032,0,1.606032,512
1934,1606864,0,1.606864,512
1935,1607700,0,1.6077,512
1936,1608532,0,1.608532,513
1937,1609364,0,1.609364,511
1938,1610200,0,1.6102,513
1939,1611032,0,1.611032,509
1940,1611864,0,1.611864,513
1941,1612700,0,1.6127,510
1942,1613532,0,1.613532,513
1943,1614368,0,1.614368,512
1944,1615200,0,1.6152,511
1945,1616032,0,1.616032,508
1946,1616868,0,1.616868,512
1947,1617700,0,1.6177,513
1948,1618532,0,1.618532,511
1949,1619368,0,1.619368,511
1950,1620200,0,1.6202,508
1951,1621032,0,1.621032,511
1952,1621868,0,1.621868,511
1953,1622700,0,1.6227,514
1954,1623532,0,1.623532,511
1955,1624368,0,1.624368,512
1956,1625200,0,1.6252,510
1957,1626032,0,1.626032,510
1958,1626868,0,1.626868,510
1959,1627700,0,1.6277,510
1960,1628532,0,1.628532,513
1961,1629368,0,1.629368,511
1962,1630200,0,1.6302,514
1963,1631032,0,1.631032,510
1964,1631868,0,1.631868,512
1965,1632700,0,1.6327,512
1966,1633532,0,1.633532,513
1967,1634368,0,1.634368,512
1968,1635200,0,1.6352,509
1969,1636032,0,1.636032,509
1970,1636868,0,1.636868,508
1971,1637700,0,1.6377,512
1972,1638532,0,1.638532,511
1973,1639368,0,1.639368,514
1974,1640200,0,1.6402,510
1975,1641036,0,1.641036,512
1976,1641868,0,1.641868,511
1977,1642700,0,1.6427,508
1978,1643536,0,1.643536,510
1979,1644368,0,1.644368,510
1980,1645200,0,1.6452,515
1981,1646036,0,1.646036,511
1982,1646868,0,1.646868,512
1983,1647700,0,1.6477,509
1984,1648536,0,1.648536,512
1985,1649368,0,1.649368,510
1986,1650200,0,1.6502,513
1987,1651036,0,1.651036,512
1988,1651868,0,1.651868,510
1989,1652700,0,1.6527,512
1990,1653536,0,1.653536,509
1991,1654368,0,1.654368,513
1992,1655200,0,1.6552,511
1993,1656036,0,1.656036,513
1994,1656868,0,1.656868,508
1995,1657700,0,1.6577,510
1996,1658536,0,1.658536,507
1997,1659368,0,1.659368,513
1998,1660200,0,1.6602,511
1999,1661036,0,1.661036,513
2000,1661868,0,1.661868,513
2001,1662700,0,1.6627,510
2002,1663536,0,1.663536,514
2003,1664368,0,1.664368,510
2004,1665204,0,1.665204,514
2005,1666036,0,1.666036,512
2006,1666868,0,1.666868,513
2007,1667704,0,1.667704,508
2008,1668536,0,1.668536,511
2009,1669368,0,1.669368,510
2010,1670204,0,1.670204,512
2011,1671036,0,1.671036,509
2012,1671868,0,1.671868,511
2013,1672704,0,1.672704,511
2014,1673536,0,1.673536,508
2015,1674368,0,1.674368,510
2016,1675204,0,1.675204,507
2017,1676036,0,1.676036,511
2018,1676868,0,1.676868,507
2019,1677704,0,1.677704,508
2020,1678536,0,1.678536,508
2021,1679368,0,1.679368,510
2022,1680204,0,1.680204,508
2023,1681036,0,1.681036,513
2024,1681868,0,1.681868,514
2025,1682704,0,1.682704,512
2026,1683536,0,1.683536,513
2027,1684368,0,1.684368,511
2028,1685204,0,1.685204,512
2029,1686036,0,1.686036,510
2030,1686868,0,1.686868,513
2031,1687704,0,1.687704,511
2032,1688536,0,1.688536,515
2033,1689368,0,1.689368,508
2034,1690204,0,1.690204,511
2035,1691036,0,1.691036,512
2036,1691868,0,1.691868,512
2037,1692704,0,1.692704,512
2038,1693536,0,1.693536,512
2039,1694372,0,1.694372,509
2040,1695204,0,1.695204,513
2041,1696036,0,1.696036,512
2042,1696872,0,1.696872,509
2043,1697704,0,1.697704,510
2044,1698536,0,1.698536,507
2045,1699372,0,1.699372,510
2046,1700204,0,1.700204,512
2047,1701036,0,1.701036,510
2048,1701872,0,1.701872,508
2049,1702704,0,1.702704,515
2050,1703536,0,1.703536,510
2051,1704372,0,1.704372,514
2052,1705204,0,1.705204,514
2053,1706036,0,1.706036,512
2054,1706872,0,1.706872,508
2055,1707704,0,1.707704,511
2056,1708536,0,1.708536,507
2057,1709372,0,1.709372,512
2058,1710204,0,1.710204,512
2059,1711036,0,1.711036,509
2060,1711872,0,1.711872,509
2061,1712704,0,1.712704,513
2062,1713536,0,1.713536,512
2063,1714372,0,1.714372,516
2064,1715208,0,1.715208,515
2065,1716036,0,1.716036,511
2066,1716872,0,1.716872,510
2067,1717704,0,1.717704,508
2068,1718540,0,1.71854,508
2069,1719372,0,1.719372,515
2070,1720204,0,1.720204,514
2071,1721040,0,1.72104,508
2072,1721872,0,1.721872,512
2073,1722704,0,1.722704,510
2074,1723540,0,1.72354,513
2075,1724372,0,1.724372,518
2076,1725204,0,1.725204,515
2077,1726040,0,1.72604,509
2078,1726872,0,1.726872,509
2079,1727704,0,1.727704,508
2080,1728540,0,1.72854,511
2081,1729372,0,1.729372,515
2082,1730204,0,1.730204,510
2083,1731040,0,1.73104,511
2084,1731872,0,1.731872,508
2085,1732704,0,1.732704,509
2086,1733540,0,1.73354,513
2087,1734372,0,1.734372,514
2088,1735204,0,1.735204,511
2089,1736040,0,1.73604,513
2090,1736872,0,1.736872,509
2091,1737704,0,1.737704,510
2092,1738540,0,1.73854,510
2093,1739372,0,1.739372,511
2094,1740204,0,1.740204,509
2095,1741040,0,1.74104,511
2096,1741872,0,1.741872,507
2097,1742704,0,1.742704,510
2098,1743540,0,1.74354,513
2099,1744372,0,1.744372,512
2100,1745204,0,1.745204,513
2101,1746040,0,1.74604,514
2102,1746872,0,1.746872,509
2103,1747708,0,1.747708,514
2104,1748540,0,1.74854,512
2105,1749372,0,1.749372,510
2106,1750208,0,1.750208,511
2107,1751040,0,1.75104,512
2108,1751872,0,1.751872,509
2109,1752708,0,1.752708,513
2110,1753540,0,1.75354,513
2111,1754372,0,1.754372,511
2112,1755208,0,1.755208,517
2113,1756040,0,1.75604,514
2114,1756872,0,1.756872,514
2115,1757708,0,1.757708,512
2116,1758540,0,1.75854,508
2117,1759372,0,1.759372,507
2118,1760208,0,1.760208,512
2119,1761040,0,1.76104,510
2120,1761872,0,1.761872,514
2121,1762708,0,1.762708,512
2122,1763540,0,1.76354,511
2123,1764372,0,1.764372,510
2124,1765208,0,1.765208,512
2125,1766040,0,1.76604,510
2126,1766872,0,1.766872,513
2127,1767708,0,1.767708,511
2128,1768540,0,1.76854,507
2129,1769372,0,1.769372,507
2130,1770208,0,1.770208,508
2131,1771040,0,1.77104,510
2132,1771876,0,1.771876,518
2133,1772708,0,1.772708,512
2134,1773540,0,1.77354,510
2135,1774376,0,1.774376,510
2136,1775208,0,1.775208,511
2137,1776040,0,1.77604,511
2138,1776876,0,1.776876,516
2139,1777708,0,1.777708,514
2140,1778540,0,1.77854,511
2141,1779376,0,1.779376,507
2142,1780208,0,1.780208,507
2143,1781040,0,1.78104,512
2144,1781876,0,1.781876,515
2145,1782708,0,1.782708,513
2146,1783540,0,1.78354,512
2147,1784376,0,1.784376,512
2148,1785208,0,1.785208,511
2149,1786040,0,1.78604,515
2150,1786876,0,1.786876,515
2151,1787708,0,1.787708,514
2152,1788540,0,1.78854,513
2153,1789376,0,1.789376,506
2154,1790208,0,1.790208,508
2155,1791040,0,1.79104,512
2156,1791876,0,1.791876,511
2157,1792708,0,1.792708,511
2158,1793540,0,1.79354,511
2159,1794376,0,1.794376,512
2160,1795208,0,1.795208,509
2161,1796040,0,1.79604,513
2162,1796876,0,1.796876,514
2163,1797708,0,1.797708,513
2164,1798540,0,1.79854,512
2165,1799376,0,1.799376,508
2166,1800208,0,1.800208,508
2167,1801044,0,1.801044,512
2168,1801876,0,1.801876,509
2169,1802708,0,1.802708,510
2170,1803544,0,1.803544,511
2171,1804376,0,1.804376,514
2172,1805208,0,1.805208,511
2173,1806044,0,1.806044,513
2174,1806876,0,1.806876,512
2175,1807708,0,1.807708,513
2176,1808544,0,1.808544,510
2177,1809376,0,1.809376,511
2178,1810208,0,1.810208,508
2179,1811044,0,1.811044,511
2180,1811876,0,1.811876,511
2181,1812708,0,1.812708,513
2182,1813544,0,1.813544,512
2183,1814376,0,1.814376,513
2184,1815208,0,1.815208,511
2185,1816044,0,1.816044,514
2186,1816876,0,1.816876,510
2187,1817708,0,1.817708,511
2188,1818544,0,1.818544,509
2189,1819376,0,1.819376,512
2190,1820208,0,1.820208,509
2191,1821044,0,1.821044,512
2192,1821876,0,1.821876,514
2193,1822708,0,1.822708,513
2194,1823544,0,1.823544,511
2195,1824376,0,1.824376,513
2196,1825212,0,1.825212,511
2197,1826044,0,1.826044,512
2198,1826876,0,1.826876,513
2199,1827712,0,1.827712,510
2200,1828544,0,1.828544,511
2201,1829376,0,1.829376,511
2202,1830212,0,1.830212,510
2203,1831044,0,1.831044,511
2204,1831876,0,1.831876,512
2205,1832712,0,1.832712,514
2206,1833544,0,1.833544,511
2207,1834376,0,1.834376,511
2208,1835212,0,1.835212,510
2209,1836044,0,1.836044,511
2210,1836876,0,1.836876,510
2211,1837712,0,1.837712,512
2212,1838544,0,1.838544,511
2213,1839376,0,1.839376,514
2214,1840212,0,1.840212,510
2215,1841044,0,1.841044,512
2216,1841876,0,1.841876,511
2217,1842712,0,1.842712,512
2218,1843544,0,1.843544,507
2219,1844376,0,1.844376,510
2220,1845212,0,1.845212,510
2221,1846044,0,1.846044,511
2222,1846876,0,1.846876,509
2223,1847712,0,1.847712,512
2224,1848544,0,1.848544,510
2225,1849376,0,1.849376,513
2226,1850212,0,1.850212,507
2227,1851044,0,1.851044,510
2228,1851880,0,1.85188,509
2229,1852712,0,1.852712,512
2230,1853544,0,1.853544,508
2231,1854380,0,1.85438,511
2232,1855212,0,1.855212,509
2233,1856044,0,1.856044,512
2234,1856880,0,1.85688,510
2235,1857712,0,1.857712,512
2236,1858544,0,1.858544,509
2237,1859380,0,1.85938,511
2238,1860212,0,1.860212,507
2239,1861044,0,1.861044,510
2240,1861880,0,1.86188,511
2241,1862712,0,1.862712,511
2242,1863544,0,1.863544,507
2243,1864380,0,1.86438,511
2244,1865212,0,1.865212,510
2245,1866044,0,1.866044,511
2246,1866880,0,1.86688,510
2247,1867712,0,1.867712,513
2248,1868544,0,1.868544,511
2249,1869380,0,1.86938,509
2250,1870212,0,1.870212,510
2251,1871044,0,1.871044,511
2252,1871880,0,1.87188,511
2253,1872712,0,1.872712,511
2254,1873544,0,1.873544,511
2255,1874380,0,1.87438,511
2256,1875212,0,1.875212,511
2257,1876044,0,1.876044,513
2258,1876880,0,1.87688,512
2259,1877712,0,1.877712,512
2260,1878548,0,1.878548,510
2261,1879380,0,1.87938,512
2262,1880212,0,1.880212,510
2263,1881048,0,1.881048,509
2264,1881880,0,1.88188,509
2265,1882712,0,1.882712,506
2266,1883548,0,1.883548,509
2267,1884380,0,1.88438,505
2268,1885212,0,1.885212,512
2269,1886048,0,1.886048,510
2270,1886880,0,1.88688,513
2271,1887712,0,1.887712,512
2272,1888548,0,1.888548,513
2273,1889380,0,1.88938,509
2274,1890212,0,1.890212,509
2275,1891048,0,1.891048,511
2276,1891880,0,1.89188,515
2277,1892712,0,1.892712,509
2278,1893548,0,1.893548,510
2279,1894380,0,1.89438,508
2280,1895212,0,1.895212,508
2281,1896048,0,1.896048,511
2282,1896880,0,1.89688,514
2283,1897712,0,1.897712,513
2284,1898548,0,1.898548,511
2285,1899380,0,1.89938,513
2286,1900212,0,1.900212,509
2287,1901048,0,1.901048,511
2288,1901880,0,1.90188,511
2289,1902712,0,1.902712,509
2290,1903548,0,1.903548,507
2291,1904380,0,1.90438,507
2292,1905212,0,1.905212,505
2293,1906048,0,1.906048,515
2294,1906880,0,1.90688,513
2295,1907720,0,1.90772,513
2296,1908548,0,1.908548,511
2297,1909380,0,1.90938,513
2298,1910216,0,1.910216,510
2299,1911048,0,1.911048,512
2300,1911880,0,1.91188,512
2301,1912716,0,1.912716,509
2302,1913548,0,1.913548,510
2303,1914380,0,1.91438,510
2304,1915216,0,1.915216,506
2305,1916048,0,1.916048,512
2306,1916880,0,1.91688,512
2307,1917716,0,1.917716,513
2308,1918548,0,1.918548,512
2309,1919380,0,1.91938,512
2310,1920216,0,1.920216,509
2311,1921048,0,1.921048,513
2312,1921880,0,1.92188,515
2313,1922716,0,1.922716,510
2314,1923548,0,1.923548,507
2315,1924380,0,1.92438,508
2316,1925216,0,1.925216,509
2317,1926048,0,1.926048,510
2318,1926880,0,1.92688,510
2319,1927716,0,1.927716,515
2320,1928548,0,1.928548,515
2321,1929380,0,1.92938,511
2322,1930216,0,1.930216,509
2323,1931048,0,1.931048,508
2324,1931880,0,1.93188,511
2325,1932716,0,1.932716,511
2326,1933548,0,1.933548,512
2327,1934384,0,1.934384,507
2328,1935216,0,1.935216,508
2329,1936048,0,1.936048,508
2330,1936884,0,1.936884,512
2331,1937716,0,1.937716,514
2332,1938548,0,1.938548,515
2333,1939384,0,1.939384,513
2334,1940216,0,1.940216,514
2335,1941048,0,1.941048,514
2336,1941884,0,1.941884,511
2337,1942716,0,1.942716,512
2338,1943548,0,1.943548,512
2339,1944384,0,1.944384,508
2340,1945216,0,1.945216,508
2341,1946048,0,1.946048,509
2342,1946884,0,1.946884,513
2343,1947716,0,1.947716,513
2344,1948548,0,1.948548,514
2345,1949384,0,1.949384,510
2346,1950216,0,1.950216,510
2347,1951048,0,1.951048,508
2348,1951884,0,1.951884,511
2349,1952716,0,1.952716,511
2350,1953548,0,1.953548,510
2351,1954384,0,1.954384,509
2352,1955216,0,1.955216,509
2353,1956048,0,1.956048,508
2354,1956884,0,1.956884,508
2355,1957716,0,1.957716,514
2356,1958552,0,1.958552,517
2357,1959384,0,1.959384,514
2358,1960216,0,1.960216,510
2359,1961052,0,1.961052,511
2360,1961884,0,1.961884,510
2361,1962716,0,1.962716,510
2362,1963552,0,1.963552,513
2363,1964384,0,1.964384,511
2364,1965216,0,1.965216,506
2365,1966052,0,1.966052,506
2366,1966884,0,1.966884,509
2367,1967716,0,1.967716,512
2368,1968552,0,1.968552,514
2369,1969384,0,1.969384,515
2370,1970216,0,1.970216,511
2371,1971052,0,1.971052,510
2372,1971884,0,1.971884,508
2373,1972716,0,1.972716,509
2374,1973552,0,1.973552,512
2375,1974384,0,1.974384,514
2376,1975216,0,1.975216,509
2377,1976052,0,1.976052,509
2378,1976884,0,1.976884,509
2379,1977716,0,1.977716,509
2380,1978552,0,1.978552,511
2381,1979384,0,1.979384,515
2382,1980216,0,1.980216,515
2383,1981052,0,1.981052,512
2384,1981884,0,1.981884,511
2385,1982716,0,1.982716,511
2386,1983552,0,1.983552,511
2387,1984384,0,1.984384,510
2388,1985220,0,1.98522,509
2389,1986052,0,1.986052,509
2390,1986884,0,1.986884,512
2391,1987720,0,1.98772,510
2392,1988552,0,1.988552,515
2393,1989384,0,1.989384,517
2394,1990220,0,1.99022,513
2395,1991052,0,1.991052,510
2396,1991884,0,1.991884,509
2397,1992720,0,1.99272,508
2398,1993552,0,1.993552,512
2399,1994384,0,1.994384,512
2400,1995220,0,1.99522,509
2401,1996052,0,1.996052,509
2402,1996884,0,1.996884,511
2403,1997720,0,1.99772,508
2404,1998552,0,1.998552,509
2405,1999384,0,1.999384,511
2406,2000220,0,2.00022,513
2407,2001052,0,2.001052,513
2408,2001884,0,2.001884,510
2409,2002720,0,2.00272,510
2410,2003552,0,2.003552,510
2411,2004384,0,2.004384,514
2412,2005220,0,2.00522,511
2413,2006052,0,2.006052,511
2414,2006884,0,2.006884,509
2415,2007720,0,2.00772,514
2416,2008552,0,2.008552,508
2417,2009384,0,2.009384,513
2418,2010220,0,2.01022,513
2419,2011052,0,2.011052,513
2420,2011884,0,2.011884,508
2421,2012720,0,2.01272,511
2422,2013552,0,2.013552,509
2423,2014388,0,2.014388,514
2424,2015220,0,2.01522,512
2425,2016052,0,2.016052,512
2426,2016888,0,2.016888,512
2427,2017720,0,2.01772,514
2428,2018552,0,2.018552,508
2429,2019388,0,2.019388,509
2430,2020220,0,2.02022,513
2431,2021052,0,2.021052,513
2432,2021888,0,2.021888,511
2433,2022720,0,2.02272,510
2434,2023552,0,2.023552,512
2435,2024388,0,2.024388,508
2436,2025220,0,2.02522,510
2437,2026052,0,2.026052,510
2438,2026888,0,2.026888,511
2439,2027720,0,2.02772,510
2440,2028552,0,2.028552,511
2441,2029388,0,2.029388,509
2442,2030220,0,2.03022,514
2443,2031052,0,2.031052,517
2444,2031888,0,2.031888,513
2445,2032720,0,2.03272,511
2446,2033552,0,2.033552,510
2447,2034388,0,2.034388,505
2448,2035220,0,2.03522,510
2449,2036052,0,2.036052,512
2450,2036888,0,2.036888,513
2451,2037720,0,2.03772,513
2452,2038552,0,2.038552,513
2453,2039388,0,2.039388,510
2454,2040220,0,2.04022,512
2455,2041056,0,2.041056,517
2456,2041888,0,2.041888,515
2457,2042720,0,2.04272,511
2458,2043556,0,2.043556,511
2459,2044388,0,2.044388,512
2460,2045220,0,2.04522,508
2461,2046056,0,2.046056,509
2462,2046888,0,2.046888,511
2463,2047720,0,2.04772,511
2464,2048556,0,2.048556,513
2465,2049388,0,2.049388,509
2466,2050220,0,2.05022,511
2467,2051056,0,2.051056,514
2468,2051888,0,2.051888,514
2469,2052720,0,2.05272,510
2470,2053556,0,2.053556,513
2471,2054388,0,2.054388,510
2472,2055220,0,2.05522,511
2473,2056056,0,2.056056,510
2474,2056888,0,2.056888,516
2475,2057720,0,2.05772,512
2476,2058556,0,2.058556,513
2477,2059388,0,2.059388,509
2478,2060220,0,2.06022,511
2479,2061056,0,2.061056,510
2480,2061888,0,2.061888,514
2481,2062720,0,2.06272,513
2482,2063556,0,2.063556,512
2483,2064392,0,2.064392,511
2484,2065220,0,2.06522,512
2485,2066056,0,2.066056,506
2486,2066888,0,2.066888,510
2487,2067724,0,2.067724,511
2488,2068556,0,2.068556,513
2489,2069388,0,2.069388,511
2490,2070224,0,2.070224,512
2491,2071056,0,2.071056,511
2492,2071888,0,2.071888,513
2493,2072724,0,2.072724,510
2494,2073556,0,2.073556,510
2495,2074388,0,2.074388,512
2496,2075224,0,2.075224,511
2497,2076056,0,2.076056,508
2498,2076888,0,2.076888,508
2499,2077724,0,2.077724,510
2500,2078556,0,2.078556,510
2501,2079388,0,2.079388,512
2502,2080224,0,2.080224,509
2503,2081056,0,2.081056,511
2504,2081888,0,2.081888,511
2505,2082724,0,2.082724,514
2506,2083556,0,2.083556,510
2507,2084388,0,2.084388,513
2508,2085224,0,2.085224,510
2509,2086056,0,2.086056,511
2510,2086888,0,2.086888,509
2511,2087724,0,2.087724,514
2512,2088556,0,2.088556,510
2513,2089388,0,2.089388,515
2514,2090224,0,2.090224,510
2515,2091056,0,2.091056,513
2516,2091892,0,2.091892,512
2517,2092724,0,2.092724,512
2518,2093556,0,2.093556,508
2519,2094392,0,2.094392,512
2520,2095224,0,2.095224,508
2521,2096056,0,2.096056,511
2522,2096892,0,2.096892,509
2523,2097724,0,2.097724,512
2524,2098556,0,2.098556,511
2525,2099392,0,2.099392,513
2526,2100224,0,2.100224,510
2527,2101056,0,2.101056,508
2528,2101892,0,2.101892,512
2529,2102724,0,2.102724,513
2530,2103556,0,2.103556,513
2531,2104392,0,2.104392,512
2532,2105224,0,2.105224,513
2533,2106056,0,2.106056,510
2534,2106892,0,2.106892,511
2535,2107724,0,2.107724,510
2536,2108556,0,2.108556,511
2537,2109392,0,2.109392,511
2538,2110224,0,2.110224,513
2539,2111056,0,2.111056,509
2540,2111892,0,2.111892,513
2541,2112724,0,2.112724,513
2542,2113556,0,2.113556,515
2543,2114392,0,2.114392,510
2544,2115224,0,2.115224,510
2545,2116056,0,2.116056,508
2546,2116892,0,2.116892,512
2547,2117724,0,2.117724,510
2548,2118556,0,2.118556,509
2549,2119392,0,2.119392,510
2550,2120224,0,2.120224,510
2551,2121060,0,2.12106,508
2552,2121892,0,2.121892,511
2553,2122724,0,2.122724,513
2554,2123560,0,2.12356,514
2555,2124392,0,2.124392,511
2556,2125224,0,2.125224,511
2557,2126060,0,2.12606,510
2558,2126892,0,2.126892,511
2559,2127724,0,2.127724,508
2560,2128560,0,2.12856,507
2561,2129392,0,2.129392,509
2562,2130224,0,2.130224,512
2563,2131060,0,2.13106,513
2564,2131892,0,2.131892,512
2565,2132724,0,2.132724,512
2566,2133560,0,2.13356,513
2567,2134392,0,2.134392,509
2568,2135224,0,2.135224,508
2569,2136060,0,2.13606,510
2570,2136892,0,2.136892,510
2571,2137724,0,2.137724,510
2572,2138560,0,2.13856,510
2573,2139392,0,2.139392,513
2574,2140224,0,2.140224,512
2575,2141060,0,2.14106,510
2576,2141892,0,2.141892,511
2577,2142724,0,2.142724,513
2578,2143560,0,2.14356,511
2579,2144392,0,2.144392,511
2580,2145228,0,2.145228,512
2581,2146060,0,2.14606,512
2582,2146892,0,2.146892,510
2583,2147728,0,2.147728,511
2584,2148560,0,2.14856,511
2585,2149392,0,2.149392,509
2586,2150228,0,2.150228,507
2587,2151060,0,2.15106,511
2588,2151892,0,2.151892,511
2589,2152728,0,2.152728,511
2590,2153560,0,2.15356,512
2591,2154392,0,2.154392,513
2592,2155228,0,2.155228,510
2593,2156060,0,2.15606,510
2594,2156892,0,2.156892,508
2595,2157728,0,2.157728,509
2596,2158560,0,2.15856,512
2597,2159392,0,2.159392,513
2598,2160228,0,2.160228,512
2599,2161060,0,2.16106,509
2600,2161892,0,2.161892,511
2601,2162728,0,2.162728,512
2602,2163560,0,2.16356,513
2603,2164392,0,2.164392,513
2604,2165228,0,2.165228,513
2605,2166060,0,2.16606,511
2606,2166892,0,2.166892,511
2607,2167728,0,2.167728,509
2608,2168560,0,2.16856,510
2609,2169392,0,2.169392,511
2610,2170228,0,2.170228,510
2611,2171060,0,2.17106,508
2612,2171892,0,2.171892,514
2613,2172728,0,2.172728,515
2614,2173560,0,2.17356,514
2615,2174396,0,2.174396,512
2616,2175228,0,2.175228,513
2617,2176060,0,2.17606,510
2618,2176896,0,2.176896,508
2619,2177728,0,2.177728,510
2620,2178560,0,2.17856,509
2621,2179396,0,2.179396,509
2622,2180228,0,2.180228,512
2623,2181060,0,2.18106,510
2624,2181896,0,2.181896,512
2625,2182728,0,2.182728,512
2626,2183560,0,2.18356,510
2627,2184396,0,2.184396,512
2628,2185228,0,2.185228,514
2629,2186060,0,2.18606,513
2630,2186896,0,2.186896,513
2631,2187728,0,2.187728,511
2632,2188560,0,2.18856,507
2633,2189396,0,2.189396,510
2634,2190228,0,2.190228,511
2635,2191060,0,2.19106,508
2636,2191896,0,2.191896,511
2637,2192728,0,2.192728,510
2638,2193560,0,2.19356,508
2639,2194396,0,2.194396,512
2640,2195228,0,2.195228,515
2641,2196060,0,2.19606,511
2642,2196896,0,2.196896,510
2643,2197728,0,2.197728,510
2644,2198564,0,2.198564,510
2645,2199396,0,2.199396,514
2646,2200228,0,2.200228,514
2647,2201064,0,2.201064,510
2648,2201896,0,2.201896,509
2649,2202728,0,2.202728,512
2650,2203564,0,2.203564,508
2651,2204396,0,2.204396,513
2652,2205228,0,2.205228,514
2653,2206064,0,2.206064,508
2654,2206896,0,2.206896,514
2655,2207728,0,2.207728,512
2656,2208564,0,2.208564,510
2657,2209396,0,2.209396,510
2658,2210228,0,2.210228,508
2659,2211064,0,2.211064,507
2660,2211896,0,2.211896,510
2661,2212728,0,2.212728,516
2662,2213564,0,2.213564,512
2663,2214396,0,2.214396,515
2664,2215228,0,2.215228,513
2665,2216064,0,2.216064,509
2666,2216896,0,2.216896,515
2667,2217728,0,2.217728,513
2668,2218564,0,2.218564,507
2669,2219396,0,2.219396,507
2670,2220228,0,2.220228,512
2671,2221064,0,2.221064,512
2672,2221896,0,2.221896,510
2673,2222728,0,2.222728,512
2674,2223564,0,2.223564,511
2675,2224396,0,2.224396,510
2676,2225228,0,2.225228,514
2677,2226064,0,2.226064,512
2678,2226896,0,2.226896,513
2679,2227732,0,2.227732,510
2680,2228564,0,2.228564,511
2681,2229396,0,2.229396,509
2682,2230232,0,2.230232,513
2683,2231064,0,2.231064,509
2684,2231896,0,2.231896,506
2685,2232732,0,2.232732,509
2686,2233564,0,2.233564,512
2687,2234396,0,2.234396,512
2688,2235232,0,2.235232,512
2689,2236064,0,2.236064,509
2690,2236896,0,2.236896,507
2691,2237732,0,2.237732,509
2692,2238564,0,2.238564,509
2693,2239396,0,2.239396,508
2694,2240232,0,2.240232,511
2695,2241064,0,2.241064,514
2696,2241896,0,2.241896,511
2697,2242732,0,2.242732,511
2698,2243564,0,2.243564,511
2699,2244396,0,2.244396,508
2700,2245232,0,2.245232,508
2701,2246064,0,2.246064,515
2702,2246896,0,2.246896,513
2703,2247732,0,2.247732,512
2704,2248564,0,2.248564,511
2705,2249396,0,2.249396,508
2706,2250232,0,2.250232,506
2707,2251064,0,2.251064,511
2708,2251900,0,2.2519,511
2709,2252732,0,2.252732,509
2710,2253564,0,2.253564,511
2711,2254400,0,2.2544,512
2712,2255232,0,2.255232,513
2713,2256064,0,2.256064,515
2714,2256904,0,2.256904,514
2715,2257732,0,2.257732,508
2716,2258564,0,2.258564,508
2717,2259400,0,2.2594,512
2718,2260232,0,2.260232,511
2719,2261064,0,2.261064,509
2720,2261900,0,2.2619,511
2721,2262732,0,2.262732,510
2722,2263564,0,2.263564,511
2723,2264400,0,2.2644,514
2724,2265232,0,2.265232,514
2725,2266064,0,2.266064,512
2726,2266900,0,2.2669,512
2727,2267732,0,2.267732,512
2728,2268564,0,2.268564,514
2729,2269400,0,2.2694,511
2730,2270232,0,2.270232,512
2731,2271064,0,2.271064,510
2732,2271900,0,2.2719,509
2733,2272732,0,2.272732,509
2734,2273564,0,2.273564,513
2735,2274400,0,2.2744,513
2736,2275232,0,2.275232,513
2737,2276064,0,2.276064,512
2738,2276900,0,2.2769,510
2739,2277732,0,2.277732,509
2740,2278568,0,2.278568,511
2741,2279400,0,2.2794,511
2742,2280232,0,2.280232,508
2743,2281068,0,2.281068,510
2744,2281900,0,2.2819,513
2745,2282732,0,2.282732,511
2746,2283568,0,2.283568,509
2747,2284400,0,2.2844,512
2748,2285232,0,2.285232,510
2749,2286068,0,2.286068,508
2750,2286900,0,2.2869,510
2751,2287732,0,2.287732,512
2752,2288568,0,2.288568,512
2753,2289400,0,2.2894,513
2754,2290232,0,2.290232,513
2755,2291068,0,2.291068,509
2756,2291900,0,2.2919,508
2757,2292732,0,2.292732,511
2758,2293568,0,2.293568,512
2759,2294400,0,2.2944,511
2760,2295232,0,2.295232,514
2761,2296068,0,2.296068,514
2762,2296900,0,2.2969,513
2763,2297732,0,2.297732,510
2764,2298568,0,2.298568,512
2765,2299400,0,2.2994,510
2766,2300232,0,2.300232,508
2767,2301068,0,2.301068,509
2768,2301900,0,2.3019,510
2769,2302732,0,2.302732,509
2770,2303568,0,2.303568,511
2771,2304400,0,2.3044,513
2772,2305236,0,2.305236,512
2773,2306068,0,2.306068,511
2774,2306900,0,2.3069,514
2775,2307736,0,2.307736,513
2776,2308568,0,2.308568,512
2777,2309400,0,2.3094,514
2778,2310236,0,2.310236,514
2779,2311068,0,2.311068,509
2780,2311900,0,2.3119,509
2781,2312736,0,2.312736,512
2782,2313568,0,2.313568,510
2783,2314400,0,2.3144,509
2784,2315236,0,2.315236,511
2785,2316068,0,2.316068,512
2786,2316900,0,2.3169,511
2787,2317736,0,2.317736,510
2788,2318568,0,2.318568,511
2789,2319400,0,2.3194,511
2790,2320236,0,2.320236,509
2791,2321068,0,2.321068,510
2792,2321900,0,2.3219,511
2793,2322736,0,2.322736,510
2794,2323568,0,2.323568,510
2795,2324400,0,2.3244,512
2796,2325236,0,2.325236,511
2797,2326068,0,2.326068,509
2798,2326900,0,2.3269,511
2799,2327736,0,2.327736,511
2800,2328568,0,2.328568,510
2801,2329400,0,2.3294,511
2802,2330236,0,2.330236,514
2803,2331068,0,2.331068,510
2804,2331904,0,2.331904,509
2805,2332736,0,2.332736,510
2806,2333568,0,2.333568,509
2807,2334404,0,2.334404,508
2808,2335236,0,2.335236,511
2809,2336068,0,2.336068,514
2810,2336904,0,2.336904,512
2811,2337736,0,2.337736,512
2812,2338568,0,2.338568,514
2813,2339404,0,2.339404,513
2814,2340236,0,2.340236,511
2815,2341068,0,2.341068,511
2816,2341904,0,2.341904,511
2817,2342736,0,2.342736,511
2818,2343568,0,2.343568,510
2819,2344404,0,2.344404,513
2820,2345236,0,2.345236,510
2821,2346068,0,2.346068,510
2822,2346904,0,2.346904,510
2823,2347736,0,2.347736,512
2824,2348568,0,2.348568,510
2825,2349404,0,2.349404,510
2826,2350236,0,2.350236,513
2827,2351068,0,2.351068,511
2828,2351904,0,2.351904,508
2829,2352736,0,2.352736,509
2830,2353568,0,2.353568,511
2831,2354404,0,2.354404,510
2832,2355236,0,2.355236,511
2833,2356068,0,2.356068,512
2834,2356904,0,2.356904,513
2835,2357736,0,2.357736,512
2836,2358568,0,2.358568,512
2837,2359404,0,2.359404,512
2838,2360236,0,2.360236,510
2839,2361072,0,2.361072,508
2840,2361904,0,2.361904,509
2841,2362736,0,2.362736,510
2842,2363572,0,2.363572,508
2843,2364404,0,2.364404,511
2844,2365236,0,2.365236,513
2845,2366072,0,2.366072,511
2846,2366904,0,2.366904,510
2847,2367736,0,2.367736,511
2848,2368572,0,2.368572,512
2849,2369404,0,2.369404,511
2850,2370236,0,2.370236,513
2851,2371072,0,2.371072,513
2852,2371904,0,2.371904,512
2853,2372736,0,2.372736,510
2854,2373572,0,2.373572,512
2855,2374404,0,2.374404,511
2856,2375236,0,2.375236,509
2857,2376072,0,2.376072,509
2858,2376904,0,2.376904,511
2859,2377736,0,2.377736,509
2860,2378572,0,2.378572,509
2861,2379404,0,2.379404,509
2862,2380236,0,2.380236,511
2863,2381072,0,2.381072,510
2864,2381904,0,2.381904,511
2865,2382736,0,2.382736,512
2866,2383572,0,2.383572,512
2867,2384404,0,2.384404,510
2868,2385236,0,2.385236,511
2869,2386072,0,2.386072,511
2870,2386904,0,2.386904,510
2871,2387740,0,2.38774,512
2872,2388572,0,2.388572,513
2873,2389404,0,2.389404,511
2874,2390240,0,2.39024,513
2875,2391072,0,2.391072,512
2876,2391904,0,2.391904,511
2877,2392740,0,2.39274,510
2878,2393572,0,2.393572,507
2879,2394404,0,2.394404,511
2880,2395240,0,2.39524,510
2881,2396072,0,2.396072,510
2882,2396904,0,2.396904,512
2883,2397740,0,2.39774,512
2884,2398572,0,2.398572,513
2885,2399404,0,2.399404,512
2886,2400240,0,2.40024,510
2887,2401072,0,2.401072,511
2888,2401904,0,2.401904,511
2889,2402740,0,2.40274,513
2890,2403572,0,2.403572,509
2891,2404404,0,2.404404,510
2892,2405240,0,2.40524,511
2893,2406072,0,2.406072,511
2894,2406904,0,2.406904,510
2895,2407740,0,2.40774,511
2896,2408572,0,2.408572,508
2897,2409404,0,2.409404,510
2898,2410240,0,2.41024,515
2899,2411072,0,2.411072,514
2900,2411908,0,2.411908,513
2901,2412740,0,2.41274,512
2902,2413576,0,2.413576,508
2903,2414408,0,2.414408,508
2904,2415240,0,2.41524,513
2905,2416072,0,2.416072,514
2906,2416908,0,2.416908,511
2907,2417740,0,2.41774,511
2908,2418572,0,2.418572,509
2909,2419408,0,2.419408,508
2910,2420240,0,2.42024,512
2911,2421072,0,2.421072,513
2912,2421908,0,2.421908,514
2913,2422740,0,2.42274,513
2914,2423572,0,2.423572,511
2915,2424408,0,2.424408,511
2916,2425240,0,2.42524,513
2917,2426072,0,2.426072,513
2918,2426908,0,2.426908,513
2919,2427740,0,2.42774,511
2920,2428572,0,2.428572,508
2921,2429408,0,2.429408,511
2922,2430240,0,2.43024,513
2923,2431072,0,2.431072,514
2924,2431908,0,2.431908,512
2925,2432740,0,2.43274,511
2926,2433572,0,2.433572,507
2927,2434408,0,2.434408,507
2928,2435240,0,2.43524,509
2929,2436072,0,2.436072,510
2930,2436908,0,2.436908,510
2931,2437740,0,2.43774,510
2932,2438572,0,2.438572,511
2933,2439408,0,2.439408,510
2934,2440240,0,2.44024,511
2935,2441076,0,2.441076,512
2936,2441908,0,2.441908,509
2937,2442740,0,2.44274,507
2938,2443576,0,2.443576,510
2939,2444408,0,2.444408,513
2940,2445240,0,2.44524,513
2941,2446076,0,2.446076,512
2942,2446908,0,2.446908,510
2943,2447740,0,2.44774,510
2944,2448576,0,2.448576,508
2945,2449408,0,2.449408,510
2946,2450240,0,2.45024,512
2947,2451076,0,2.451076,512
2948,2451908,0,2.451908,510
2949,2452740,0,2.45274,509
2950,2453576,0,2.453576,511
2951,2454408,0,2.454408,508
2952,2455240,0,2.45524,510
2953,2456076,0,2.456076,512
2954,2456908,0,2.456908,514
2955,2457740,0,2.45774,513
2956,2458576,0,2.458576,514
2957,2459408,0,2.459408,512
2958,2460240,0,2.46024,509
2959,2461076,0,2.461076,505
2960,2461908,0,2.461908,510
2961,2462740,0,2.46274,513
2962,2463576,0,2.463576,515
2963,2464408,0,2.464408,510
2964,2465244,0,2.465244,509
2965,2466076,0,2.466076,509
2966,2466908,0,2.466908,507
2967,2467744,0,2.467744,512
2968,2468576,0,2.468576,515
2969,2469408,0,2.469408,514
2970,2470244,0,2.470244,510
2971,2471076,0,2.471076,509
2972,2471908,0,2.471908,511
2973,2472744,0,2.472744,511
2974,2473576,0,2.473576,512
2975,2474408,0,2.474408,512
2976,2475244,0,2.475244,510
2977,2476076,0,2.476076,508
2978,2476908,0,2.476908,508
2979,2477744,0,2.477744,511
2980,2478576,0,2.478576,512
2981,2479408,0,2.479408,510
2982,2480244,0,2.480244,509
2983,2481076,0,2.481076,510
2984,2481908,0,2.481908,513
2985,2482744,0,2.482744,511
2986,2483576,0,2.483576,510
2987,2484408,0,2.484408,510
2988,2485244,0,2.485244,507
2989,2486076,0,2.486076,510
2990,2486908,0,2.486908,514
2991,2487744,0,2.487744,513
2992,2488576,0,2.488576,514
2993,2489408,0,2.489408,510
2994,2490244,0,2.490244,507
2995,2491076,0,2.491076,509
2996,2491908,0,2.491908,514
2997,2492744,0,2.492744,514
2998,2493576,0,2.493576,515
2999,2494412,0,2.494412,511
3000,2495244,0,2.495244,507
3001,2496076,0,2.496076,508
3002,2496912,0,2.496912,510
3003,2497744,0,2.497744,509
3004,2498576,0,2.498576,514
3005,2499412,0,2.499412,514
3006,2500244,0,2.500244,513
3007,2501076,0,2.501076,510
3008,2501912,0,2.501912,507
3009,2502744,0,2.502744,507
3010,2503576,0,2.503576,509
3011,2504412,0,2.504412,510
3012,2505244,0,2.505244,512
3013,2506076,0,2.506076,513
3014,2506912,0,2.506912,513
3015,2507744,0,2.507744,511
3016,2508576,0,2.508576,509
3017,2509412,0,2.509412,508
3018,2510244,0,2.510244,510
3019,2511076,0,2.511076,511
3020,2511912,0,2.511912,513
3021,2512744,0,2.512744,513
3022,2513576,0,2.513576,512
3023,2514412,0,2.514412,512
3024,2515244,0,2.515244,511
3025,2516076,0,2.516076,510
3026,2516912,0,2.516912,508
3027,2517744,0,2.517744,508
3028,2518580,0,2.51858,510
3029,2519412,0,2.519412,512
3030,2520244,0,2.520244,511
3031,2521080,0,2.52108,511
3032,2521912,0,2.521912,512
3033,2522744,0,2.522744,511
3034,2523580,0,2.52358,508
3035,2524412,0,2.524412,511
3036,2525244,0,2.525244,513
3037,2526080,0,2.52608,513
3038,2526912,0,2.526912,511
3039,2527744,0,2.527744,508
3040,2528580,0,2.52858,509
3041,2529412,0,2.529412,510
3042,2530244,0,2.530244,513
3043,2531080,0,2.53108,511
3044,2531912,0,2.531912,510
3045,2532744,0,2.532744,510
3046,2533580,0,2.53358,510
3047,2534412,0,2.534412,511
3048,2535244,0,2.535244,512
3049,2536080,0,2.53608,511
3050,2536912,0,2.536912,508
3051,2537744,0,2.537744,507
3052,2538580,0,2.53858,509
3053,2539412,0,2.539412,512
3054,2540244,0,2.540244,515
3055,2541080,0,2.54108,512
3056,2541912,0,2.541912,511
3057,2542744,0,2.542744,509
3058,2543580,0,2.54358,509
3059,2544412,0,2.544412,511
3060,2545248,0,2.545248,515
3061,2546080,0,2.54608,515
3062,2546912,0,2.546912,514
3063,2547748,0,2.547748,510
3064,2548580,0,2.54858,510
3065,2549412,0,2.549412,512
3066,2550248,0,2.550248,511
3067,2551080,0,2.55108,510
3068,2551912,0,2.551912,511
3069,2552748,0,2.552748,509
3070,2553580,0,2.55358,511
3071,2554412,0,2.554412,512
3072,2555248,0,2.555248,513
3073,2556080,0,2.55608,513
3074,2556912,0,2.556912,510
3075,2557748,0,2.557748,511
3076,2558580,0,2.55858,511
3077,2559412,0,2.559412,513
3078,2560248,0,2.560248,514
3079,2561080,0,2.56108,515
3080,2561912,0,2.561912,509
3081,2562748,0,2.562748,507
3082,2563580,0,2.56358,509
3083,2564412,0,2.564412,511
3084,2565248,0,2.565248,513
3085,2566080,0,2.56608,513
3086,2566912,0,2.566912,510
3087,2567748,0,2.567748,510
3088,2568580,0,2.56858,509
3089,2569412,0,2.569412,512
3090,2570248,0,2.570248,512
3091,2571080,0,2.57108,512
3092,2571916,0,2.571916,511
3093,2572748,0,2.572748,510
3094,2573580,0,2.57358,512
3095,2574416,0,2.574416,512
3096,2575248,0,2.575248,513
3097,2576080,0,2.57608,512
3098,2576916,0,2.576916,508
3099,2577748,0,2.577748,508
3100,2578580,0,2.57858,510
3101,2579416,0,2.579416,511
3102,2580248,0,2.580248,512
3103,2581080,0,2.58108,515
3104,2581916,0,2.581916,513
3105,2582748,0,2.582748,510
3106,2583580,0,2.58358,509
3107,2584416,0,2.584416,509
3108,2585248,0,2.585248,510
3109,2586080,0,2.58608,512
3110,2586916,0,2.586916,512
3111,2587748,0,2.587748,511
3112,2588580,0,2.58858,512
3113,2589416,0,2.589416,511
3114,2590248,0,2.590248,510
3115,2591080,0,2.59108,512
3116,2591916,0,2.591916,510
3117,2592748,0,2.592748,509
3118,2593580,0,2.59358,511
3119,2594416,0,2.594416,510
3120,2595248,0,2.595248,511
3121,2596080,0,2.59608,512
3122,2596916,0,2.596916,510
3123,2597748,0,2.597748,507
3124,2598584,0,2.598584,508
3125,2599416,0,2.599416,511
3126,2600248,0,2.600248,513
3127,2601084,0,2.601084,516
3128,2601916,0,2.601916,515
3129,2602748,0,2.602748,510
3130,2603584,0,2.603584,510
3131,2604416,0,2.604416,509
3132,2605248,0,2.605248,509
3133,2606088,0,2.606088,511
3134,2606916,0,2.606916,513
3135,2607748,0,2.607748,514
3136,2608584,0,2.608584,513
3137,2609416,0,2.609416,512
3138,2610248,0,2.610248,509
3139,2611084,0,2.611084,508
3140,2611916,0,2.611916,509
3141,2612748,0,2.612748,511
3142,2613584,0,2.613584,510
3143,2614416,0,2.614416,511
3144,2615248,0,2.615248,509
3145,2616084,0,2.616084,515
3146,2616916,0,2.616916,512
3147,2617748,0,2.617748,509
3148,2618584,0,2.618584,508
3149,2619416,0,2.619416,507
3150,2620248,0,2.620248,509
3151,2621084,0,2.621084,513
3152,2621916,0,2.621916,514
3153,2622748,0,2.622748,513
3154,2623584,0,2.623584,510
3155,2624416,0,2.624416,512
3156,2625252,0,2.625252,509
3157,2626084,0,2.626084,508
3158,2626916,0,2.626916,508
3159,2627752,0,2.627752,509
3160,2628584,0,2.628584,510
3161,2629416,0,2.629416,512
3162,2630252,0,2.630252,510
3163,2631084,0,2.631084,511
3164,2631916,0,2.631916,511
3165,2632752,0,2.632752,513
3166,2633584,0,2.633584,513
3167,2634416,0,2.634416,511
3168,2635252,0,2.635252,509
3169,2636084,0,2.636084,509
3170,2636916,0,2.636916,511
3171,2637752,0,2.637752,512
3172,2638584,0,2.638584,512
3173,2639416,0,2.639416,510
3174,2640252,0,2.640252,512
3175,2641084,0,2.641084,511
3176,2641916,0,2.641916,514
3177,2642752,0,2.642752,512
3178,2643584,0,2.643584,511
3179,2644416,0,2.644416,510
3180,2645252,0,2.645252,510
3181,2646084,0,2.646084,509
3182,2646916,0,2.646916,513
3183,2647752,0,2.647752,514
3184,2648584,0,2.648584,515
3185,2649416,0,2.649416,514
3186,2650252,0,2.650252,514
3187,2651084,0,2.651084,511
3188,2651916,0,2.651916,509
3189,2652752,0,2.652752,508
3190,2653584,0,2.653584,508
3191,2654420,0,2.65442,510
3192,2655252,0,2.655252,512
3193,2656084,0,2.656084,512
3194,2656920,0,2.65692,512
3195,2657752,0,2.657752,513
3196,2658584,0,2.658584,512
3197,2659420,0,2.65942,510
3198,2660252,0,2.660252,510
3199,2661084,0,2.661084,510
3200,2661920,0,2.66192,508
3201,2662752,0,2.662752,510
3202,2663584,0,2.663584,512
3203,2664420,0,2.66442,512
3204,2665252,0,2.665252,511
3205,2666084,0,2.666084,510
3206,2666920,0,2.66692,510
3207,2667752,0,2.667752,512
3208,2668584,0,2.668584,513
3209,2669420,0,2.66942,513
3210,2670252,0,2.670252,511
3211,2671084,0,2.671084,509
3212,2671920,0,2.67192,508
3213,2672752,0,2.672752,509
3214,2673584,0,2.673584,509
3215,2674420,0,2.67442,511
3216,2675252,0,2.675252,512
3217,2676084,0,2.676084,512
3218,2676920,0,2.67692,511
3219,2677752,0,2.677752,513
3220,2678584,0,2.678584,511
3221,2679420,0,2.67942,509
3222,2680252,0,2.680252,509
3223,2681088,0,2.681088,509
3224,2681920,0,2.68192,510
3225,2682752,0,2.682752,512
3226,2683588,0,2.683588,513
3227,2684420,0,2.68442,512
3228,2685252,0,2.685252,512
3229,2686088,0,2.686088,511
3230,2686920,0,2.68692,510
3231,2687752,0,2.687752,511
3232,2688588,0,2.688588,511
3233,2689420,0,2.68942,510
3234,2690252,0,2.690252,510
3235,2691088,0,2.691088,511
3236,2691920,0,2.69192,512
3237,2692752,0,2.692752,510
3238,2693588,0,2.693588,511
3239,2694420,0,2.69442,510
3240,2695252,0,2.695252,512
3241,2696088,0,2.696088,512
3242,2696920,0,2.69692,511
3243,2697752,0,2.697752,511
3244,2698588,0,2.698588,511
3245,2699420,0,2.69942,509
3246,2700252,0,2.700252,509
3247,2701088,0,2.701088,512
3248,2701920,0,2.70192,510
3249,2702752,0,2.702752,511
3250,2703588,0,2.703588,512
3251,2704420,0,2.70442,512
3252,2705252,0,2.705252,510
3253,2706088,0,2.706088,510
3254,2706920,0,2.70692,509
3255,2707756,0,2.707756,510
3256,2708588,0,2.708588,512
3257,2709420,0,2.70942,512
3258,2710256,0,2.710256,511
3259,2711088,0,2.711088,511
3260,2711920,0,2.71192,510
3261,2712756,0,2.712756,509
3262,2713588,0,2.713588,510
3263,2714420,0,2.71442,510
3264,2715256,0,2.715256,513
3265,2716088,0,2.716088,512
3266,2716920,0,2.71692,511
3267,2717756,0,2.717756,511
3268,2718588,0,2.718588,511
3269,2719420,0,2.71942,511
3270,2720256,0,2.720256,510
3271,2721088,0,2.721088,511
3272,2721920,0,2.72192,511
3273,2722756,0,2.722756,512
3274,2723588,0,2.723588,514
3275,2724420,0,2.72442,512
3276,2725256,0,2.725256,511
3277,2726088,0,2.726088,511
3278,2726920,0,2.72692,510
3279,2727756,0,2.727756,510
3280,2728588,0,2.728588,513
3281,2729420,0,2.72942,514
3282,2730256,0,2.730256,512
3283,2731088,0,2.731088,512
3284,2731920,0,2.73192,509
3285,2732756,0,2.732756,508
3286,2733588,0,2.733588,508
3287,2734424,0,2.734424,508
3288,2735256,0,2.735256,509
3289,2736088,0,2.736088,513
3290,2736924,0,2.736924,515
3291,2737756,0,2.737756,512
3292,2738588,0,2.738588,511
3293,2739424,0,2.739424,512
3294,2740256,0,2.740256,511
3295,2741088,0,2.741088,512
3296,2741924,0,2.741924,513
3297,2742756,0,2.742756,512
3298,2743588,0,2.743588,512
3299,2744424,0,2.744424,513
3300,2745256,0,2.745256,512
3301,2746088,0,2.746088,510
3302,2746924,0,2.746924,509
3303,2747756,0,2.747756,509
3304,2748588,0,2.748588,510
3305,2749424,0,2.749424,510
3306,2750256,0,2.750256,509
3307,2751088,0,2.751088,510
3308,2751924,0,2.751924,514
3309,2752756,0,2.752756,511
3310,2753588,0,2.753588,508
3311,2754424,0,2.754424,508
3312,2755256,0,2.755256,510
3313,2756088,0,2.756088,512
3314,2756924,0,2.756924,512
3315,2757756,0,2.757756,514
3316,2758592,0,2.758592,512
3317,2759424,0,2.759424,513
3318,2760256,0,2.760256,512
3319,2761092,0,2.761092,511
3320,2761924,0,2.761924,511
3321,2762760,0,2.76276,509
3322,2763592,0,2.763592,510
3323,2764424,0,2.764424,512
3324,2765256,0,2.765256,512
3325,2766092,0,2.766092,513
3326,2766924,0,2.766924,512
3327,2767756,0,2.767756,514
3328,2768592,0,2.768592,515
3329,2769424,0,2.769424,516
3330,2770256,0,2.770256,513
3331,2771092,0,2.771092,510
3332,2771924,0,2.771924,506
3333,2772756,0,2.772756,507
3334,2773592,0,2.773592,504
3335,2774424,0,2.774424,505
3336,2775256,0,2.775256,510
3337,2776092,0,2.776092,511
3338,2776924,0,2.776924,512
3339,2777756,0,2.777756,512
3340,2778592,0,2.778592,511
3341,2779424,0,2.779424,508
3342,2780256,0,2.780256,509
3343,2781092,0,2.781092,509
3344,2781924,0,2.781924,509
3345,2782756,0,2.782756,509
3346,2783592,0,2.783592,512
3347,2784424,0,2.784424,513
3348,2785260,0,2.78526,514
3349,2786092,0,2.786092,514
3350,2786924,0,2.786924,512
3351,2787760,0,2.78776,511
3352,2788592,0,2.788592,509
3353,2789424,0,2.789424,508
3354,2790260,0,2.79026,508
3355,2791092,0,2.791092,508
3356,2791924,0,2.791924,510
3357,2792760,0,2.79276,510
3358,2793592,0,2.793592,510
3359,2794424,0,2.794424,510
3360,2795260,0,2.79526,512
3361,2796092,0,2.796092,511
3362,2796924,0,2.796924,511
3363,2797760,0,2.79776,510
3364,2798592,0,2.798592,511
3365,2799424,0,2.799424,510
3366,2800260,0,2.80026,511
3367,2801092,0,2.801092,511
3368,2801924,0,2.801924,511
3369,2802760,0,2.80276,513
3370,2803592,0,2.803592,512
3371,2804424,0,2.804424,512
3372,2805260,0,2.80526,512
3373,2806092,0,2.806092,510
3374,2806924,0,2.806924,510
3375,2807760,0,2.80776,510
3376,2808592,0,2.808592,507
3377,2809424,0,2.809424,507
3378,2810260,0,2.81026,510
3379,2811092,0,2.811092,512
3380,2811928,0,2.811928,511
3381,2812760,0,2.81276,513
3382,2813592,0,2.813592,512
3383,2814428,0,2.814428,510
3384,2815260,0,2.81526,510
3385,2816092,0,2.816092,510
3386,2816928,0,2.816928,512
3387,2817760,0,2.81776,509
3388,2818592,0,2.818592,511
3389,2819428,0,2.819428,511
3390,2820260,0,2.82026,509
3391,2821092,0,2.821092,510
3392,2821928,0,2.821928,511
3393,2822760,0,2.82276,509
3394,2823592,0,2.823592,514
3395,2824428,0,2.824428,511
3396,2825260,0,2.82526,510
3397,2826092,0,2.826092,513
3398,2826928,0,2.826928,512
3399,2827760,0,2.82776,512
3400,2828592,0,2.828592,514
3401,2829428,0,2.829428,511
3402,2830260,0,2.83026,511
3403,2831092,0,2.831092,513
3404,2831928,0,2.831928,513
3405,2832760,0,2.83276,512
3406,2833592,0,2.833592,510
3407,2834428,0,2.834428,509
3408,2835260,0,2.83526,508
3409,2836092,0,2.836092,509
3410,2836928,0,2.836928,509
3411,2837760,0,2.83776,511
3412,2838592,0,2.838592,511
3413,2839428,0,2.839428,511
3414,2840260,0,2.84026,510
3415,2841096,0,2.841096,511
3416,2841928,0,2.841928,511
3417,2842760,0,2.84276,511
3418,2843596,0,2.843596,509
3419,2844428,0,2.844428,509
3420,2845260,0,2.84526,510
3421,2846096,0,2.846096,511
3422,2846928,0,2.846928,512
3423,2847760,0,2.84776,515
3424,2848596,0,2.848596,512
3425,2849428,0,2.849428,509
3426,2850260,0,2.85026,510
3427,2851096,0,2.851096,512
3428,2851928,0,2.851928,513
3429,2852760,0,2.85276,512
3430,2853596,0,2.853596,512
3431,2854428,0,2.854428,510
3432,2855260,0,2.85526,512
3433,2856096,0,2.856096,512
3434,2856928,0,2.856928,511
3435,2857760,0,2.85776,512
3436,2858596,0,2.858596,512
3437,2859428,0,2.859428,512
3438,2860260,0,2.86026,512
3439,2861096,0,2.861096,509
3440,2861928,0,2.861928,509
3441,2862760,0,2.86276,512
3442,2863596,0,2.863596,512
3443,2864428,0,2.864428,511
3444,2865264,0,2.865264,513
3445,2866096,0,2.866096,515
3446,2866928,0,2.866928,512
3447,2867764,0,2.867764,512
3448,2868596,0,2.868596,509
3449,2869428,0,2.869428,508
3450,2870264,0,2.870264,511
3451,2871096,0,2.871096,512
3452,2871928,0,2.871928,515
3453,2872764,0,2.872764,515
3454,2873596,0,2.873596,511
3455,2874428,0,2.874428,508
3456,2875264,0,2.875264,508
3457,2876096,0,2.876096,508
3458,2876928,0,2.876928,509
3459,2877764,0,2.877764,510
3460,2878596,0,2.878596,509
3461,2879428,0,2.879428,511
3462,2880264,0,2.880264,516
3463,2881096,0,2.881096,512
3464,2881928,0,2.881928,509
3465,2882764,0,2.882764,508
3466,2883596,0,2.883596,508
3467,2884428,0,2.884428,508
3468,2885264,0,2.885264,509
3469,2886096,0,2.886096,512
3470,2886928,0,2.886928,515
3471,2887764,0,2.887764,513
3472,2888596,0,2.888596,515
3473,2889428,0,2.889428,513
3474,2890264,0,2.890264,511
3475,2891096,0,2.891096,511
3476,2891928,0,2.891928,511
3477,2892764,0,2.892764,511
3478,2893596,0,2.893596,510
3479,2894432,0,2.894432,511
3480,2895264,0,2.895264,512
3481,2896096,0,2.896096,513
3482,2896932,0,2.896932,514
3483,2897764,0,2.897764,513
3484,2898596,0,2.898596,511
3485,2899432,0,2.899432,509
3486,2900264,0,2.900264,508
3487,2901096,0,2.901096,508
3488,2901932,0,2.901932,511
3489,2902764,0,2.902764,510
3490,2903596,0,2.903596,510
3491,2904432,0,2.904432,513
3492,2905264,0,2.905264,513
3493,2906096,0,2.906096,516
3494,2906932,0,2.906932,513
3495,2907764,0,2.907764,511
3496,2908596,0,2.908596,509
3497,2909432,0,2.909432,507
3498,2910264,0,2.910264,506
3499,2911096,0,2.911096,511
3500,2911932,0,2.911932,512
3501,2912764,0,2.912764,512
3502,2913596,0,2.913596,513
3503,2914432,0,2.914432,514
3504,2915264,0,2.915264,513
3505,2916096,0,2.916096,513
3506,2916932,0,2.916932,511
3507,2917764,0,2.917764,510
3508,2918600,0,2.9186,511
3509,2919432,0,2.919432,510
3510,2920264,0,2.920264,513
3511,2921100,0,2.9211,512
3512,2921932,0,2.921932,513
3513,2922764,0,2.922764,511
3514,2923600,0,2.9236,512
3515,2924432,0,2.924432,510
3516,2925264,0,2.925264,512
3517,2926100,0,2.9261,509
3518,2926932,0,2.926932,512
3519,2927764,0,2.927764,511
3520,2928600,0,2.9286,510
3521,2929432,0,2.929432,509
3522,2930264,0,2.930264,512
3523,2931100,0,2.9311,510
3524,2931932,0,2.931932,512
3525,2932764,0,2.932764,513
3526,2933600,0,2.9336,512
3527,2934432,0,2.934432,512
3528,2935264,0,2.935264,509
3529,2936100,0,2.9361,508
3530,2936932,0,2.936932,509
3531,2937764,0,2.937764,510
3532,2938600,0,2.9386,511
3533,2939432,0,2.939432,514
3534,2940264,0,2.940264,511
3535,2941100,0,2.9411,512
3536,2941932,0,2.941932,511
3537,2942764,0,2.942764,511
3538,2943600,0,2.9436,511
3539,2944432,0,2.944432,513
3540,2945264,0,2.945264,511
3541,2946100,0,2.9461,512
3542,2946932,0,2.946932,510
3543,2947768,0,2.947768,513
3544,2948600,0,2.9486,512
3545,2949432,0,2.949432,512
3546,2950268,0,2.950268,510
3547,2951100,0,2.9511,509
3548,2951932,0,2.951932,508
3549,2952768,0,2.952768,511
3550,2953600,0,2.9536,511
3551,2954432,0,2.954432,511
3552,2955272,0,2.955272,512
3553,2956100,0,2.9561,509
3554,2956932,0,2.956932,508
3555,2957768,0,2.957768,511
3556,2958600,0,2.9586,511
3557,2959432,0,2.959432,512
3558,2960268,0,2.960268,510
3559,2961100,0,2.9611,511
3560,2961932,0,2.961932,511
3561,2962768,0,2.962768,509
3562,2963600,0,2.9636,512
3563,2964432,0,2.964432,512
3564,2965268,0,2.965268,511
3565,2966100,0,2.9661,511
3566,2966932,0,2.966932,512
3567,2967768,0,2.967768,510
3568,2968600,0,2.9686,509
3569,2969432,0,2.969432,508
3570,2970268,0,2.970268,508
3571,2971100,0,2.9711,510
3572,2971932,0,2.971932,511
3573,2972768,0,2.972768,511
3574,2973600,0,2.9736,515
3575,2974436,0,2.974436,513
3576,2975268,0,2.975268,513
3577,2976100,0,2.9761,510
3578,2976936,0,2.976936,510
3579,2977768,0,2.977768,511
3580,2978600,0,2.9786,513
3581,2979436,0,2.979436,515
3582,2980268,0,2.980268,516
3583,2981100,0,2.9811,511
3584,2981936,0,2.981936,509
3585,2982768,0,2.982768,507
3586,2983600,0,2.9836,508
3587,2984436,0,2.984436,508
3588,2985268,0,2.985268,511
3589,2986100,0,2.9861,512
3590,2986936,0,2.986936,514
3591,2987768,0,2.987768,514
3592,2988600,0,2.9886,513
3593,2989436,0,2.989436,509
3594,2990268,0,2.990268,508
3595,2991100,0,2.9911,505
3596,2991936,0,2.991936,508
3597,2992768,0,2.992768,511
3598,2993600,0,2.9936,512
3599,2994436,0,2.994436,515
3600,2995268,0,2.995268,513
3601,2996100,0,2.9961,515
3602,2996936,0,2.996936,513
3603,2997768,0,2.997768,510
3604,2998604,0,2.998604,508
3605,2999436,0,2.999436,509
3606,3000268,0,3.000268,511
3607,3001104,0,3.001104,513
3608,3001936,0,3.001936,511
3609,3002768,0,3.002768,514
3610,3003604,0,3.003604,511
3611,3004436,0,3.004436,511
3612,3005268,0,3.005268,514
3613,3006104,0,3.006104,512
3614,3006936,0,3.006936,508
3615,3007768,0,3.007768,509
3616,3008604,0,3.008604,508
3617,3009436,0,3.009436,511
3618,3010268,0,3.010268,512
3619,3011104,0,3.011104,512
3620,3011936,0,3.011936,513
3621,3012768,0,3.012768,512
3622,3013604,0,3.013604,514
3623,3014436,0,3.014436,514
3624,3015268,0,3.015268,512
3625,3016104,0,3.016104,511
3626,3016936,0,3.016936,508
3627,3017768,0,3.017768,507
3628,3018604,0,3.018604,508
3629,3019436,0,3.019436,510
3630,3020268,0,3.020268,513
3631,3021104,0,3.021104,515
3632,3021936,0,3.021936,517
3633,3022768,0,3.022768,515
3634,3023604,0,3.023604,511
3635,3024436,0,3.024436,507
3636,3025268,0,3.025268,506
3637,3026104,0,3.026104,508
3638,3026936,0,3.026936,510
3639,3027772,0,3.027772,512
3640,3028604,0,3.028604,513
3641,3029436,0,3.029436,512
3642,3030272,0,3.030272,513
3643,3031104,0,3.031104,514
3644,3031936,0,3.031936,512
3645,3032772,0,3.032772,508
3646,3033604,0,3.033604,507
3647,3034436,0,3.034436,508
3648,3035272,0,3.035272,511
3649,3036104,0,3.036104,512
3650,3036936,0,3.036936,513
3651,3037772,0,3.037772,513
3652,3038604,0,3.038604,511
3653,3039436,0,3.039436,511
3654,3040272,0,3.040272,511
3655,3041104,0,3.041104,510
3656,3041936,0,3.041936,509
3657,3042772,0,3.042772,510
3658,3043604,0,3.043604,508
3659,3044436,0,3.044436,508
3660,3045272,0,3.045272,508
3661,3046104,0,3.046104,510
3662,3046936,0,3.046936,514
3663,3047772,0,3.047772,515
3664,3048604,0,3.048604,513
3665,3049436,0,3.049436,513
3666,3050272,0,3.050272,510
3667,3051104,0,3.051104,510
3668,3051936,0,3.051936,508
3669,3052772,0,3.052772,509
3670,3053604,0,3.053604,510
3671,3054440,0,3.05444,512
3672,3055272,0,3.055272,512
3673,3056104,0,3.056104,512
3674,3056940,0,3.05694,514
3675,3057772,0,3.057772,514
3676,3058604,0,3.058604,512
3677,3059440,0,3.05944,509
3678,3060272,0,3.060272,509
3679,3061104,0,3.061104,511
3680,3061940,0,3.06194,510
3681,3062772,0,3.062772,513
3682,3063604,0,3.063604,513
3683,3064440,0,3.06444,512
3684,3065272,0,3.065272,509
3685,3066104,0,3.066104,510
3686,3066940,0,3.06694,510
3687,3067772,0,3.067772,512
3688,3068604,0,3.068604,512
3689,3069440,0,3.06944,513
3690,3070272,0,3.070272,511
3691,3071104,0,3.071104,510
3692,3071940,0,3.07194,510
3693,3072772,0,3.072772,510
3694,3073604,0,3.073604,511
3695,3074440,0,3.07444,511
3696,3075272,0,3.075272,512
3697,3076104,0,3.076104,512
3698,3076940,0,3.07694,513
3699,3077772,0,3.077772,511
3700,3078608,0,3.078608,512
3701,3079440,0,3.07944,509
3702,3080272,0,3.080272,509
3703,3081108,0,3.081108,509
3704,3081940,0,3.08194,511
3705,3082772,0,3.082772,511
3706,3083608,0,3.083608,514
3707,3084440,0,3.08444,512
3708,3085272,0,3.085272,510
3709,3086108,0,3.086108,507
3710,3086940,0,3.08694,507
3711,3087772,0,3.087772,509
3712,3088608,0,3.088608,512
3713,3089440,0,3.08944,512
3714,3090272,0,3.090272,513
3715,3091108,0,3.091108,513
3716,3091940,0,3.09194,511
3717,3092772,0,3.092772,508
3718,3093608,0,3.093608,508
3719,3094440,0,3.09444,509
3720,3095272,0,3.095272,511
3721,3096108,0,3.096108,511
3722,3096940,0,3.09694,512
3723,3097772,0,3.097772,513
3724,3098608,0,3.098608,511
3725,3099440,0,3.09944,512
3726,3100272,0,3.100272,509
3727,3101108,0,3.101108,510
3728,3101940,0,3.10194,509
3729,3102772,0,3.102772,511
3730,3103608,0,3.103608,511
3731,3104440,0,3.10444,512
3732,3105272,0,3.105272,513
3733,3106108,0,3.106108,512
3734,3106940,0,3.10694,508
3735,3107776,0,3.107776,508
3736,3108608,0,3.108608,510
3737,3109440,0,3.10944,511
3738,3110276,0,3.110276,512
3739,3111108,0,3.111108,514
3740,3111944,0,3.111944,513
3741,3112776,0,3.112776,510
3742,3113608,0,3.113608,510
3743,3114440,0,3.11444,510
3744,3115276,0,3.115276,512
3745,3116108,0,3.116108,513
3746,3116940,0,3.11694,512
3747,3117776,0,3.117776,511
3748,3118608,0,3.118608,511
3749,3119440,0,3.11944,509
3750,3120276,0,3.120276,509
3751,3121108,0,3.121108,510
3752,3121940,0,3.12194,511
3753,3122776,0,3.122776,512
3754,3123608,0,3.123608,511
3755,3124440,0,3.12444,512
3756,3125276,0,3.125276,511
3757,3126108,0,3.126108,510
3758,3126940,0,3.12694,509
3759,3127776,0,3.127776,511
3760,3128608,0,3.128608,510
3761,3129440,0,3.12944,511
3762,3130276,0,3.130276,512
3763,3131108,0,3.131108,515
3764,3131940,0,3.13194,515
3765,3132776,0,3.132776,514
3766,3133608,0,3.133608,511
3767,3134444,0,3.134444,508
3768,3135276,0,3.135276,508
3769,3136108,0,3.136108,509
3770,3136944,0,3.136944,512
3771,3137776,0,3.137776,513
3772,3138608,0,3.138608,514
3773,3139444,0,3.139444,511
3774,3140276,0,3.140276,510
3775,3141108,0,3.141108,509
3776,3141944,0,3.141944,509
3777,3142776,0,3.142776,510
3778,3143608,0,3.143608,512
3779,3144444,0,3.144444,512
3780,3145276,0,3.145276,512
3781,3146108,0,3.146108,512
3782,3146944,0,3.146944,512
3783,3147776,0,3.147776,513
3784,3148608,0,3.148608,511
3785,3149444,0,3.149444,508
3786,3150276,0,3.150276,509
3787,3151108,0,3.151108,510
3788,3151944,0,3.151944,514
3789,3152776,0,3.152776,515
3790,3153608,0,3.153608,515
3791,3154444,0,3.154444,512
3792,3155276,0,3.155276,509
3793,3156108,0,3.156108,506
3794,3156944,0,3.156944,509
3795,3157776,0,3.157776,508
3796,3158608,0,3.158608,511
3797,3159444,0,3.159444,512
3798,3160276,0,3.160276,512
3799,3161112,0,3.161112,511
3800,3161944,0,3.161944,510
3801,3162776,0,3.162776,508
3802,3163612,0,3.163612,509
3803,3164444,0,3.164444,509
3804,3165276,0,3.165276,511
3805,3166112,0,3.166112,512
3806,3166944,0,3.166944,511
3807,3167776,0,3.167776,510
3808,3168612,0,3.168612,510
3809,3169444,0,3.169444,513
3810,3170276,0,3.170276,515
3811,3171112,0,3.171112,511
3812,3171944,0,3.171944,509
3813,3172776,0,3.172776,508
3814,3173612,0,3.173612,510
3815,3174444,0,3.174444,512
3816,3175276,0,3.175276,511
3817,3176112,0,3.176112,511
3818,3176944,0,3.176944,512
3819,3177776,0,3.177776,513
3820,3178612,0,3.178612,512
3821,3179444,0,3.179444,511
3822,3180276,0,3.180276,508
3823,3181112,0,3.181112,507
3824,3181944,0,3.181944,509
3825,3182776,0,3.182776,511
3826,3183612,0,3.183612,511
3827,3184444,0,3.184444,510
3828,3185276,0,3.185276,512
3829,3186112,0,3.186112,514
3830,3186944,0,3.186944,514
3831,3187780,0,3.18778,511
3832,3188612,0,3.188612,509
3833,3189444,0,3.189444,509
3834,3190280,0,3.19028,510
3835,3191112,0,3.191112,512
3836,3191944,0,3.191944,512
3837,3192780,0,3.19278,512
3838,3193612,0,3.193612,511
3839,3194444,0,3.194444,512
3840,3195280,0,3.19528,512
3841,3196112,0,3.196112,514
3842,3196944,0,3.196944,512
3843,3197780,0,3.19778,509
3844,3198612,0,3.198612,508
3845,3199444,0,3.199444,510
3846,3200280,0,3.20028,513
3847,3201112,0,3.201112,511
3848,3201944,0,3.201944,512
3849,3202780,0,3.20278,515
3850,3203612,0,3.203612,515
3851,3204444,0,3.204444,512
3852,3205280,0,3.20528,513
3853,3206112,0,3.206112,508
3854,3206944,0,3.206944,508
3855,3207780,0,3.20778,509
3856,3208612,0,3.208612,512
3857,3209444,0,3.209444,512
3858,3210280,0,3.21028,512
3859,3211112,0,3.211112,513
3860,3211944,0,3.211944,514
3861,3212780,0,3.21278,513
3862,3213612,0,3.213612,514
3863,3214448,0,3.214448,511
3864,3215280,0,3.21528,508
3865,3216112,0,3.216112,507
3866,3216948,0,3.216948,510
3867,3217780,0,3.21778,510
3868,3218612,0,3.218612,509
3869,3219448,0,3.219448,512
3870,3220280,0,3.22028,513
3871,3221112,0,3.221112,514
3872,3221948,0,3.221948,515
3873,3222780,0,3.22278,511
3874,3223612,0,3.223612,509
3875,3224448,0,3.224448,508
3876,3225280,0,3.22528,509
3877,3226112,0,3.226112,511
3878,3226948,0,3.226948,512
3879,3227780,0,3.22778,513
3880,3228612,0,3.228612,515
3881,3229448,0,3.229448,515
3882,3230280,0,3.23028,514
3883,3231112,0,3.231112,513
3884,3231948,0,3.231948,509
3885,3232780,0,3.23278,508
3886,3233612,0,3.233612,509
3887,3234448,0,3.234448,514
3888,3235280,0,3.23528,513
3889,3236112,0,3.236112,511
3890,3236948,0,3.236948,513
3891,3237780,0,3.23778,513
3892,3238616,0,3.238616,512
3893,3239448,0,3.239448,511
3894,3240280,0,3.24028,509
3895,3241116,0,3.241116,508
3896,3241948,0,3.241948,508
3897,3242780,0,3.24278,509
3898,3243616,0,3.243616,509
3899,3244448,0,3.244448,511
3900,3245280,0,3.24528,513
3901,3246116,0,3.246116,513
3902,3246948,0,3.246948,514
3903,3247780,0,3.24778,513
3904,3248616,0,3.248616,510
3905,3249448,0,3.249448,506
3906,3250280,0,3.25028,507
3907,3251116,0,3.251116,508
3908,3251948,0,3.251948,508
3909,3252780,0,3.25278,512
3910,3253616,0,3.253616,511
3911,3254448,0,3.254448,513
3912,3255280,0,3.25528,516
3913,3256116,0,3.256116,514
3914,3256948,0,3.256948,511
3915,3257780,0,3.25778,510
3916,3258616,0,3.258616,508
3917,3259448,0,3.259448,506
3918,3260280,0,3.26028,511
3919,3261116,0,3.261116,516
3920,3261948,0,3.261948,514
3921,3262780,0,3.26278,512
3922,3263616,0,3.263616,514
3923,3264448,0,3.264448,512
3924,3265284,0,3.265284,511
3925,3266116,0,3.266116,511
3926,3266948,0,3.266948,511
3927,3267784,0,3.267784,510
3928,3268616,0,3.268616,510
3929,3269448,0,3.269448,510
3930,3270284,0,3.270284,509
3931,3271116,0,3.271116,509
3932,3271948,0,3.271948,513
3933,3272784,0,3.272784,513
3934,3273616,0,3.273616,515
3935,3274448,0,3.274448,514
3936,3275284,0,3.275284,510
3937,3276116,0,3.276116,506
3938,3276948,0,3.276948,507
3939,3277784,0,3.277784,510
3940,3278616,0,3.278616,509
3941,3279448,0,3.279448,510
3942,3280284,0,3.280284,516
3943,3281116,0,3.281116,516
3944,3281948,0,3.281948,513
3945,3282784,0,3.282784,513
3946,3283616,0,3.283616,510
3947,3284448,0,3.284448,507
3948,3285284,0,3.285284,506
3949,3286116,0,3.286116,508
3950,3286948,0,3.286948,510
3951,3287784,0,3.287784,514
3952,3288616,0,3.288616,517
3953,3289448,0,3.289448,516
3954,3290284,0,3.290284,513
3955,3291116,0,3.291116,511
3956,3291948,0,3.291948,509
3957,3292784,0,3.292784,510
3958,3293616,0,3.293616,510
3959,3294452,0,3.294452,508
3960,3295284,0,3.295284,509
3961,3296116,0,3.296116,514
3962,3296952,0,3.296952,513
3963,3297784,0,3.297784,511
3964,3298616,0,3.298616,512
3965,3299452,0,3.299452,513
3966,3300284,0,3.300284,515
3967,3301116,0,3.301116,514
3968,3301952,0,3.301952,510
3969,3302784,0,3.302784,508
3970,3303616,0,3.303616,510
3971,3304456,0,3.304456,508
3972,3305284,0,3.305284,510
3973,3306116,0,3.306116,514
3974,3306952,0,3.306952,512
3975,3307784,0,3.307784,511
3976,3308616,0,3.308616,511
3977,3309452,0,3.309452,510
3978,3310284,0,3.310284,511
3979,3311116,0,3.311116,512
3980,3311952,0,3.311952,511
3981,3312784,0,3.312784,511
3982,3313616,0,3.313616,511
3983,3314452,0,3.314452,509
3984,3315284,0,3.315284,512
3985,3316116,0,3.316116,513
3986,3316952,0,3.316952,512
3987,3317784,0,3.317784,510
3988,3318620,0,3.31862,513
3989,3319452,0,3.319452,511
3990,3320284,0,3.320284,510
3991,3321120,0,3.32112,512
3992,3321952,0,3.321952,510
3993,3322784,0,3.322784,509
3994,3323620,0,3.32362,512
3995,3324452,0,3.324452,509
3996,3325284,0,3.325284,506
3997,3326120,0,3.32612,509
3998,3326952,0,3.326952,511
3999,3327784,0,3.327784,509
4000,3328620,0,3.32862,510
4001,3329452,0,3.329452,512
4002,3330284,0,3.330284,509
4003,3331120,0,3.33112,511
4004,3331952,0,3.331952,514
4005,3332784,0,3.332784,512
4006,3333620,0,3.33362,511
4007,3334452,0,3.334452,513
4008,3335284,0,3.335284,510
4009,3336120,0,3.33612,512
4010,3336952,0,3.336952,513
4011,3337784,0,3.337784,511
4012,3338620,0,3.33862,512
4013,3339452,0,3.339452,512
4014,3340284,0,3.340284,509
4015,3341120,0,3.34112,508
4016,3341952,0,3.341952,510
4017,3342784,0,3.342784,509
4018,3343620,0,3.34362,508
4019,3344452,0,3.344452,513
4020,3345284,0,3.345284,512
4021,3346120,0,3.34612,512
4022,3346952,0,3.346952,514
4023,3347788,0,3.347788,510
4024,3348620,0,3.34862,513
4025,3349452,0,3.349452,512
4026,3350288,0,3.350288,510
4027,3351120,0,3.35112,510
4028,3351952,0,3.351952,512
4029,3352788,0,3.352788,509
4030,3353620,0,3.35362,511
4031,3354452,0,3.354452,510
4032,3355288,0,3.355288,509
4033,3356120,0,3.35612,511
4034,3356952,0,3.356952,510
4035,3357788,0,3.357788,509
4036,3358620,0,3.35862,510
4037,3359452,0,3.359452,513
4038,3360288,0,3.360288,509
4039,3361120,0,3.36112,509
4040,3361952,0,3.361952,512
4041,3362788,0,3.362788,514
4042,3363620,0,3.36362,511
4043,3364452,0,3.364452,511
4044,3365288,0,3.365288,512
4045,3366120,0,3.36612,512
4046,3366952,0,3.366952,512
4047,3367788,0,3.367788,514
4048,3368620,0,3.36862,516
4049,3369452,0,3.369452,512
4050,3370288,0,3.370288,509
4051,3371120,0,3.37112,510
4052,3371956,0,3.371956,511
4053,3372788,0,3.372788,514
4054,3373620,0,3.37362,511
4055,3374456,0,3.374456,513
4056,3375288,0,3.375288,513
4057,3376120,0,3.37612,510
4058,3376956,0,3.376956,510
4059,3377788,0,3.377788,510
4060,3378620,0,3.37862,511
4061,3379456,0,3.379456,511
4062,3380288,0,3.380288,512
4063,3381120,0,3.38112,509
4064,3381956,0,3.381956,507
4065,3382788,0,3.382788,511
4066,3383620,0,3.38362,512
4067,3384456,0,3.384456,512
4068,3385288,0,3.385288,514
4069,3386120,0,3.38612,512
4070,3386956,0,3.386956,512
4071,3387788,0,3.387788,507
4072,3388620,0,3.38862,508
4073,3389456,0,3.389456,510
4074,3390288,0,3.390288,509
4075,3391120,0,3.39112,510
4076,3391956,0,3.391956,510
4077,3392788,0,3.392788,513
4078,3393620,0,3.39362,513
4079,3394456,0,3.394456,513
4080,3395288,0,3.395288,515
4081,3396120,0,3.39612,513
4082,3396956,0,3.396956,515
4083,3397788,0,3.397788,513
4084,3398624,0,3.398624,512
4085,3399456,0,3.399456,511
4086,3400288,0,3.400288,511
4087,3401124,0,3.401124,509
4088,3401956,0,3.401956,507
4089,3402788,0,3.402788,510
4090,3403624,0,3.403624,513
4091,3404456,0,3.404456,513
4092,3405288,0,3.405288,513
4093,3406124,0,3.406124,513
4094,3406956,0,3.406956,512
4095,3407788,0,3.407788,512
4096,3408624,0,3.408624,512
4097,3409456,0,3.409456,510
4098,3410288,0,3.410288,508
4099,3411124,0,3.411124,507
4100,3411956,0,3.411956,509
4101,3412788,0,3.412788,509
4102,3413624,0,3.413624,515
4103,3414456,0,3.414456,515
4104,3415288,0,3.415288,515
4105,3416124,0,3.416124,512
4106,3416956,0,3.416956,511
4107,3417788,0,3.417788,512
4108,3418624,0,3.418624,513
4109,3419456,0,3.419456,511
4110,3420288,0,3.420288,508
4111,3421124,0,3.421124,510
4112,3421956,0,3.421956,510
4113,3422788,0,3.422788,508
4114,3423624,0,3.423624,513
4115,3424456,0,3.424456,511
4116,3425288,0,3.425288,511
4117,3426124,0,3.426124,513
4118,3426956,0,3.426956,515
4119,3427792,0,3.427792,512
4120,3428624,0,3.428624,512
4121,3429456,0,3.429456,511
4122,3430292,0,3.430292,508
4123,3431124,0,3.431124,508
4124,3431956,0,3.431956,509
4125,3432792,0,3.432792,509
4126,3433624,0,3.433624,510
4127,3434456,0,3.434456,511
4128,3435292,0,3.435292,515
4129,3436124,0,3.436124,515
4130,3436956,0,3.436956,514
4131,3437792,0,3.437792,514
4132,3438624,0,3.438624,514
4133,3439456,0,3.439456,512
4134,3440292,0,3.440292,508
4135,3441124,0,3.441124,508
4136,3441956,0,3.441956,509
4137,3442792,0,3.442792,509
4138,3443624,0,3.443624,510
4139,3444456,0,3.444456,515
4140,3445292,0,3.445292,515
4141,3446124,0,3.446124,514
4142,3446956,0,3.446956,514
4143,3447792,0,3.447792,513
4144,3448624,0,3.448624,511
4145,3449456,0,3.449456,509
4146,3450292,0,3.450292,509
4147,3451124,0,3.451124,508
4148,3451960,0,3.45196,508
4149,3452792,0,3.452792,509
4150,3453624,0,3.453624,510
4151,3454460,0,3.45446,513
4152,3455292,0,3.455292,514
4153,3456124,0,3.456124,514
4154,3456960,0,3.45696,514
4155,3457792,0,3.457792,512
4156,3458624,0,3.458624,511
4157,3459460,0,3.45946,511
4158,3460292,0,3.460292,510
4159,3461128,0,3.461128,507
4160,3461960,0,3.46196,508
4161,3462792,0,3.462792,508
4162,3463624,0,3.463624,510
4163,3464460,0,3.46446,512
4164,3465292,0,3.465292,513
4165,3466124,0,3.466124,513
4166,3466960,0,3.46696,511
4167,3467792,0,3.467792,512
4168,3468624,0,3.468624,512
4169,3469460,0,3.46946,511
4170,3470292,0,3.470292,509
4171,3471124,0,3.471124,508
4172,3471960,0,3.47196,510
4173,3472792,0,3.472792,508
4174,3473624,0,3.473624,510
4175,3474460,0,3.47446,510
4176,3475292,0,3.475292,512
4177,3476124,0,3.476124,511
4178,3476960,0,3.47696,511
4179,3477792,0,3.477792,512
4180,3478628,0,3.478628,513
4181,3479460,0,3.47946,511
4182,3480292,0,3.480292,511
4183,3481128,0,3.481128,511
4184,3481960,0,3.48196,509
4185,3482792,0,3.482792,507
4186,3483628,0,3.483628,508
4187,3484460,0,3.48446,510
4188,3485292,0,3.485292,514
4189,3486128,0,3.486128,515
4190,3486960,0,3.48696,514
4191,3487792,0,3.487792,513
4192,3488628,0,3.488628,512
4193,3489460,0,3.48946,510
4194,3490292,0,3.490292,512
4195,3491128,0,3.491128,509
4196,3491960,0,3.49196,511
4197,3492792,0,3.492792,509
4198,3493628,0,3.493628,507
4199,3494460,0,3.49446,507
4200,3495292,0,3.495292,511
4201,3496128,0,3.496128,512
4202,3496960,0,3.49696,511
4203,3497792,0,3.497792,512
4204,3498628,0,3.498628,513
4205,3499460,0,3.49946,513
4206,3500292,0,3.500292,509
4207,3501128,0,3.501128,507
4208,3501960,0,3.50196,511
4209,3502792,0,3.502792,512
4210,3503628,0,3.503628,510
4211,3504460,0,3.50446,510
4212,3505292,0,3.505292,512
4213,3506128,0,3.506128,514
4214,3506960,0,3.50696,513
4215,3507796,0,3.507796,514
4216,3508628,0,3.508628,512
4217,3509460,0,3.50946,513
4218,3510296,0,3.510296,513
4219,3511128,0,3.511128,511
4220,3511960,0,3.51196,510
4221,3512796,0,3.512796,508
4222,3513628,0,3.513628,507
4223,3514460,0,3.51446,507
4224,3515296,0,3.515296,509
4225,3516128,0,3.516128,513
4226,3516960,0,3.51696,514
4227,3517796,0,3.517796,511
4228,3518628,0,3.518628,512
4229,3519460,0,3.51946,513
4230,3520296,0,3.520296,513
4231,3521128,0,3.521128,509
4232,3521960,0,3.52196,510
4233,3522796,0,3.522796,509
4234,3523628,0,3.523628,507
4235,3524460,0,3.52446,508
4236,3525296,0,3.525296,508
4237,3526128,0,3.526128,512
4238,3526960,0,3.52696,514
4239,3527796,0,3.527796,511
4240,3528628,0,3.528628,513
4241,3529460,0,3.52946,513
4242,3530296,0,3.530296,513
4243,3531128,0,3.531128,510
4244,3531964,0,3.531964,509
4245,3532796,0,3.532796,510
4246,3533628,0,3.533628,507
4247,3534464,0,3.534464,508
4248,3535296,0,3.535296,507
4249,3536128,0,3.536128,512
4250,3536964,0,3.536964,513
4251,3537796,0,3.537796,512
4252,3538628,0,3.538628,511
4253,3539464,0,3.539464,512
4254,3540296,0,3.540296,513
4255,3541128,0,3.541128,512
