id,Total Microseconds,Minute,Seconds,Value
0,1048,0,0.001048,512.0
1,1784,0,0.001784,513.0
2,2620,0,0.00262,515.0
3,3452,0,0.003452,511.0
4,4284,0,0.004284,507.0
5,5120,0,0.00512,510.0
6,5952,0,0.005952,511.0
7,1048,0,0.001048,5510.0
8,1784,0,0.001784,510.0
9,2620,0,0.00262,506.0
10,3452,0,0.003452,513.0
11,4284,0,0.004284,515.0
12,5120,0,0.00512,510.0
13,5952,0,0.005952,510.0
14,6784,0,0.006784,511.0
15,7620,0,0.00762,509.0
16,8452,0,0.008452,509.0
17,9284,0,0.009284,509.0
18,10120,0,0.01012,512.0
19,10952,0,0.010952,509.0
20,11784,0,0.011784,511.0
21,12620,0,0.01262,510.0
22,13452,0,0.013452,509.0
23,14288,0,0.014288,509.0
24,15120,0,0.01512,510.0
25,15952,0,0.015952,517.0
26,16788,0,0.016788,510.0
27,17620,0,0.01762,508.0
28,18452,0,0.018452,511.0
29,19288,0,0.019288,510.0
30,20120,0,0.02012,512.0
31,20952,0,0.020952,502.0
32,21788,0,0.021788,509.0
33,22620,0,0.02262,510.0
34,23452,0,0.023452,494.0
35,24288,0,0.024288,512.0
36,25120,0,0.02512,515.0
37,25952,0,0.025952,502.0
38,26788,0,0.026788,508.0
39,27620,0,0.02762,512.0
40,28452,0,0.028452,515.0
41,29288,0,0.029288,484.0
42,30120,0,0.03012,518.0
43,30952,0,0.030952,515.0
44,31788,0,0.031788,515.0
45,32620,0,0.03262,517.0
46,33452,0,0.033452,517.0
47,34288,0,0.034288,509.0
48,35120,0,0.03512,512.0
49,35952,0,0.035952,509.0
50,36788,0,0.036788,498.0
51,37620,0,0.03762,511.0
52,38456,0,0.038456,515.0
53,39288,0,0.039288,512.0
54,40120,0,0.04012,511.0
55,40956,0,0.040956,510.0
56,41788,0,0.041788,511.0
57,42620,0,0.04262,513.0
58,43456,0,0.043456,512.0
59,44288,0,0.044288,513.0
60,45120,0,0.04512,513.0
61,45956,0,0.045956,513.0
62,46788,0,0.046788,511.0
63,47620,0,0.04762,516.0
64,48456,0,0.048456,508.0
65,49288,0,0.049288,508.0
66,50120,0,0.05012,516.0
67,50956,0,0.050956,510.0
68,51788,0,0.051788,509.0
69,52620,0,0.05262,511.0
70,53456,0,0.053456,508.0
71,54288,0,0.054288,511.0
72,55120,0,0.05512,511.0
73,55956,0,0.055956,511.0
74,56788,0,0.056788,509.0
75,57620,0,0.05762,508.0
76,58456,0,0.058456,504.0
77,59288,0,0.059288,511.0
78,60120,0,0.06012,512.0
79,60956,0,0.060956,510.0
80,61788,0,0.061788,509.0
81,62620,0,0.06262,512.0
82,63456,0,0.063456,511.0
83,64288,0,0.064288,512.0
84,65120,0,0.06512,512.0
85,65956,0,0.065956,506.0
86,66788,0,0.066788,509.0
87,67624,0,0.067624,512.0
88,68456,0,0.068456,513.0
89,69288,0,0.069288,512.0
90,70124,0,0.070124,513.0
91,70956,0,0.070956,508.0
92,71788,0,0.071788,508.0
93,72624,0,0.072624,513.0
94,73456,0,0.073456,516.0
95,74288,0,0.074288,515.0
96,75124,0,0.075124,513.0
97,75956,0,0.075956,510.0
98,76788,0,0.076788,515.0
99,77624,0,0.077624,512.0
100,78456,0,0.078456,513.0
101,79288,0,0.079288,512.0
102,80124,0,0.080124,511.0
103,80956,0,0.080956,512.0
104,81788,0,0.081788,512.0
105,82624,0,0.082624,515.0
106,83456,0,0.083456,511.0
107,84288,0,0.084288,511.0
108,85124,0,0.085124,515.0
109,85956,0,0.085956,511.0
110,86788,0,0.086788,510.0
111,87624,0,0.087624,508.0
112,88456,0,0.088456,510.0
113,89288,0,0.089288,511.0
114,90124,0,0.090124,500.0
115,90956,0,0.090956,512.0
116,91792,0,0.091792,512.0
117,92624,0,0.092624,504.0
118,93456,0,0.093456,511.0
119,94292,0,0.094292,511.0
120,95124,0,0.095124,512.0
121,95956,0,0.095956,520.0
122,96792,0,0.096792,511.0
123,97624,0,0.097624,510.0
124,98456,0,0.098456,510.0
125,99292,0,0.099292,512.0
126,100124,0,0.100124,514.0
127,100956,0,0.100956,501.0
128,101792,0,0.101792,504.0
129,102624,0,0.102624,510.0
130,103456,0,0.103456,512.0
131,104292,0,0.104292,512.0
132,105124,0,0.105124,509.0
133,105956,0,0.105956,517.0
134,106792,0,0.106792,506.0
135,107624,0,0.107624,509.0
136,108456,0,0.108456,509.0
137,109292,0,0.109292,513.0
138,110124,0,0.110124,513.0
139,110956,0,0.110956,515.0
140,111792,0,0.111792,508.0
141,112624,0,0.112624,520.0
142,113456,0,0.113456,513.0
143,114292,0,0.114292,512.0
144,115124,0,0.115124,511.0
145,115956,0,0.115956,509.0
146,116792,0,0.116792,510.0
147,117624,0,0.117624,519.0
148,118456,0,0.118456,512.0
149,119292,0,0.119292,510.0
150,120124,0,0.120124,510.0
151,120960,0,0.12096,509.0
152,121792,0,0.121792,509.0
153,122624,0,0.122624,510.0
154,123460,0,0.12346,512.0
155,124292,0,0.124292,510.0
156,125124,0,0.125124,500.0
157,125960,0,0.12596,512.0
158,126792,0,0.126792,511.0
159,127624,0,0.127624,495.0
160,128460,0,0.12846,509.0
161,129292,0,0.129292,510.0
162,130124,0,0.130124,512.0
163,130960,0,0.13096,512.0
164,131792,0,0.131792,511.0
165,132624,0,0.132624,512.0
166,133460,0,0.13346,512.0
167,134292,0,0.134292,512.0
168,135124,0,0.135124,502.0
169,135960,0,0.13596,510.0
170,136792,0,0.136792,507.0
171,137624,0,0.137624,511.0
172,138460,0,0.13846,511.0
173,139292,0,0.139292,514.0
174,140124,0,0.140124,512.0
175,140960,0,0.14096,512.0
176,141792,0,0.141792,519.0
177,142624,0,0.142624,510.0
178,143460,0,0.14346,510.0
179,144292,0,0.144292,514.0
180,145124,0,0.145124,513.0
181,145960,0,0.14596,510.0
182,146792,0,0.146792,514.0
183,147628,0,0.147628,510.0
184,148460,0,0.14846,510.0
185,149292,0,0.149292,514.0
186,150128,0,0.150128,513.0
187,150960,0,0.15096,507.0
188,151792,0,0.151792,508.0
189,152628,0,0.152628,509.0
190,153460,0,0.15346,508.0
191,154292,0,0.154292,511.0
192,155128,0,0.155128,508.0
193,155960,0,0.15596,506.0
194,156792,0,0.156792,511.0
195,157628,0,0.157628,513.0
196,158460,0,0.15846,513.0
197,159292,0,0.159292,509.0
198,160128,0,0.160128,510.0
199,160960,0,0.16096,510.0
200,161792,0,0.161792,503.0
201,162628,0,0.162628,513.0
202,163460,0,0.16346,512.0
203,164292,0,0.164292,508.0
204,165128,0,0.165128,510.0
205,165960,0,0.16596,509.0
206,166792,0,0.166792,510.0
207,167628,0,0.167628,513.0
208,168460,0,0.16846,509.0
209,169292,0,0.169292,510.0
210,170128,0,0.170128,512.0
211,170960,0,0.17096,509.0
212,171796,0,0.171796,513.0
213,172628,0,0.172628,511.0
214,173460,0,0.17346,503.0
215,174296,0,0.174296,513.0
216,175128,0,0.175128,513.0
217,175960,0,0.17596,515.0
218,176796,0,0.176796,510.0
219,177628,0,0.177628,511.0
220,178460,0,0.17846,508.0
221,179296,0,0.179296,512.0
222,180128,0,0.180128,512.0
223,180960,0,0.18096,518.0
224,181796,0,0.181796,504.0
225,182628,0,0.182628,511.0
226,183460,0,0.18346,518.0
227,184296,0,0.184296,515.0
228,185128,0,0.185128,512.0
229,185960,0,0.18596,515.0
230,186796,0,0.186796,503.0
231,187628,0,0.187628,509.0
232,188460,0,0.18846,508.0
233,189296,0,0.189296,511.0
234,190128,0,0.190128,510.0
235,190960,0,0.19096,512.0
236,191796,0,0.191796,506.0
237,192628,0,0.192628,508.0
238,193460,0,0.19346,511.0
239,194296,0,0.194296,512.0
240,195128,0,0.195128,510.0
241,195960,0,0.19596,510.0
242,196796,0,0.196796,508.0
243,197628,0,0.197628,505.0
244,198460,0,0.19846,513.0
245,199296,0,0.199296,510.0
246,200128,0,0.200128,513.0
247,200964,0,0.200964,509.0
248,201796,0,0.201796,507.0
249,202628,0,0.202628,509.0
250,203464,0,0.203464,509.0
251,204296,0,0.204296,509.0
252,205128,0,0.205128,508.0
253,205964,0,0.205964,511.0
254,206796,0,0.206796,510.0
255,207628,0,0.207628,500.0
256,208464,0,0.208464,511.0
257,209296,0,0.209296,512.0
258,210128,0,0.210128,514.0
259,210964,0,0.210964,511.0
260,211796,0,0.211796,511.0
261,212628,0,0.212628,517.0
262,213464,0,0.213464,509.0
263,214296,0,0.214296,512.0
264,215128,0,0.215128,513.0
265,215964,0,0.215964,512.0
266,216796,0,0.216796,509.0
267,217628,0,0.217628,517.0
268,218464,0,0.218464,513.0
269,219296,0,0.219296,518.0
270,220128,0,0.220128,511.0
271,220964,0,0.220964,506.0
272,221796,0,0.221796,506.0
273,222628,0,0.222628,509.0
274,223464,0,0.223464,511.0
275,224296,0,0.224296,511.0
276,225128,0,0.225128,510.0
277,225964,0,0.225964,506.0
278,226796,0,0.226796,507.0
279,227632,0,0.227632,509.0
280,228464,0,0.228464,510.0
281,229296,0,0.229296,508.0
282,230132,0,0.230132,510.0
283,230964,0,0.230964,509.0
284,231796,0,0.231796,507.0
285,232632,0,0.232632,515.0
286,233464,0,0.233464,515.0
287,234296,0,0.234296,506.0
288,235132,0,0.235132,510.0
289,235964,0,0.235964,511.0
290,236796,0,0.236796,508.0
291,237632,0,0.237632,513.0
292,238464,0,0.238464,514.0
293,239296,0,0.239296,508.0
294,240132,0,0.240132,511.0
295,240964,0,0.240964,511.0
296,241796,0,0.241796,514.0
297,242632,0,0.242632,509.0
298,243464,0,0.243464,511.0
299,244296,0,0.244296,513.0
300,245132,0,0.245132,509.0
301,245964,0,0.245964,519.0
302,246796,0,0.246796,510.0
303,247632,0,0.247632,507.0
304,248464,0,0.248464,517.0
305,249296,0,0.249296,512.0
306,250132,0,0.250132,512.0
307,250964,0,0.250964,521.0
308,251796,0,0.251796,509.0
309,252632,0,0.252632,506.0
310,253464,0,0.253464,511.0
311,254300,0,0.2543,513.0
312,255132,0,0.255132,511.0
313,255964,0,0.255964,516.0
314,256800,0,0.2568,511.0
315,257632,0,0.257632,510.0
316,258464,0,0.258464,508.0
317,259300,0,0.2593,512.0
318,260132,0,0.260132,514.0
319,260964,0,0.260964,513.0
320,261800,0,0.2618,510.0
321,262632,0,0.262632,511.0
322,263464,0,0.263464,510.0
323,264300,0,0.2643,513.0
324,265132,0,0.265132,509.0
325,265964,0,0.265964,497.0
326,266800,0,0.2668,512.0
327,267632,0,0.267632,514.0
328,268464,0,0.268464,511.0
329,269300,0,0.2693,513.0
330,270132,0,0.270132,510.0
331,270964,0,0.270964,508.0
332,271800,0,0.2718,513.0
333,272632,0,0.272632,512.0
334,273464,0,0.273464,515.0
335,274300,0,0.2743,512.0
336,275132,0,0.275132,513.0
337,275964,0,0.275964,511.0
338,276800,0,0.2768,513.0
339,277632,0,0.277632,515.0
340,278464,0,0.278464,525.0
341,279300,0,0.2793,521.0
342,280132,0,0.280132,520.0
343,280968,0,0.280968,523.0
344,281800,0,0.2818,516.0
345,282632,0,0.282632,516.0
346,283468,0,0.283468,512.0
347,284300,0,0.2843,514.0
348,285132,0,0.285132,516.0
349,285968,0,0.285968,508.0
350,286800,0,0.2868,509.0
351,287632,0,0.287632,511.0
352,288468,0,0.288468,508.0
353,289300,0,0.2893,509.0
354,290132,0,0.290132,506.0
355,290968,0,0.290968,512.0
356,291800,0,0.2918,511.0
357,292632,0,0.292632,505.0
358,293468,0,0.293468,510.0
359,294300,0,0.2943,513.0
360,295132,0,0.295132,514.0
361,295968,0,0.295968,511.0
362,296800,0,0.2968,513.0
363,297632,0,0.297632,511.0
364,298468,0,0.298468,509.0
365,299300,0,0.2993,506.0
366,300132,0,0.300132,509.0
367,300968,0,0.300968,513.0
368,301800,0,0.3018,505.0
369,302632,0,0.302632,508.0
370,303468,0,0.303468,512.0
371,304300,0,0.3043,503.0
372,305136,0,0.305136,512.0
373,305968,0,0.305968,514.0
374,306800,0,0.3068,511.0
375,307636,0,0.307636,510.0
376,308468,0,0.308468,512.0
377,309300,0,0.3093,513.0
378,310136,0,0.310136,514.0
379,310968,0,0.310968,509.0
380,311800,0,0.3118,512.0
381,312636,0,0.312636,512.0
382,313468,0,0.313468,514.0
383,314300,0,0.3143,505.0
384,315136,0,0.315136,513.0
385,315968,0,0.315968,511.0
386,316800,0,0.3168,511.0
387,317636,0,0.317636,514.0
388,318472,0,0.318472,511.0
389,319300,0,0.3193,510.0
390,320136,0,0.320136,513.0
391,320968,0,0.320968,511.0
392,321800,0,0.3218,504.0
393,322636,0,0.322636,512.0
394,323468,0,0.323468,512.0
395,324300,0,0.3243,505.0
396,325136,0,0.325136,509.0
397,325968,0,0.325968,515.0
398,326800,0,0.3268,515.0
399,327636,0,0.327636,509.0
400,328468,0,0.328468,503.0
401,329300,0,0.3293,512.0
402,330136,0,0.330136,511.0
403,330968,0,0.330968,505.0
404,331804,0,0.331804,511.0
405,332636,0,0.332636,512.0
406,333468,0,0.333468,502.0
407,334304,0,0.334304,511.0
408,335136,0,0.335136,515.0
409,335968,0,0.335968,510.0
410,336804,0,0.336804,513.0
411,337636,0,0.337636,510.0
412,338468,0,0.338468,507.0
413,339304,0,0.339304,509.0
414,340136,0,0.340136,514.0
415,340968,0,0.340968,510.0
416,341804,0,0.341804,508.0
417,342636,0,0.342636,511.0
418,343468,0,0.343468,509.0
419,344304,0,0.344304,509.0
420,345136,0,0.345136,513.0
421,345968,0,0.345968,509.0
422,346804,0,0.346804,511.0
423,347636,0,0.347636,512.0
424,348468,0,0.348468,511.0
425,349304,0,0.349304,513.0
426,350136,0,0.350136,514.0
427,350968,0,0.350968,510.0
428,351804,0,0.351804,509.0
429,352636,0,0.352636,508.0
430,353468,0,0.353468,509.0
431,354304,0,0.354304,513.0
432,355136,0,0.355136,501.0
433,355968,0,0.355968,512.0
434,356804,0,0.356804,512.0
435,357636,0,0.357636,507.0
436,358468,0,0.358468,512.0
437,359304,0,0.359304,515.0
438,360136,0,0.360136,504.0
439,360972,0,0.360972,509.0
440,361804,0,0.361804,512.0
441,362636,0,0.362636,508.0
442,363472,0,0.363472,512.0
443,364304,0,0.364304,512.0
444,365136,0,0.365136,503.0
445,365972,0,0.365972,515.0
446,366804,0,0.366804,515.0
447,367636,0,0.367636,507.0
448,368472,0,0.368472,513.0
449,369304,0,0.369304,515.0
450,370136,0,0.370136,511.0
451,370972,0,0.370972,510.0
452,371804,0,0.371804,510.0
453,372636,0,0.372636,509.0
454,373472,0,0.373472,510.0
455,374304,0,0.374304,510.0
456,375136,0,0.375136,514.0
457,375972,0,0.375972,508.0
458,376804,0,0.376804,509.0
459,377636,0,0.377636,503.0
460,378472,0,0.378472,505.0
461,379304,0,0.379304,513.0
462,380136,0,0.380136,513.0
463,380972,0,0.380972,505.0
464,381804,0,0.381804,513.0
465,382636,0,0.382636,514.0
466,383472,0,0.383472,512.0
467,384304,0,0.384304,515.0
468,385140,0,0.38514,514.0
469,385972,0,0.385972,501.0
470,386804,0,0.386804,507.0
471,387640,0,0.38764,508.0
472,388472,0,0.388472,509.0
473,389304,0,0.389304,490.0
474,390140,0,0.39014,507.0
475,390972,0,0.390972,510.0
476,391804,0,0.391804,506.0
477,392640,0,0.39264,512.0
478,393472,0,0.393472,512.0
479,394304,0,0.394304,509.0
480,395140,0,0.39514,511.0
481,395972,0,0.395972,508.0
482,396804,0,0.396804,504.0
483,397640,0,0.39764,511.0
484,398472,0,0.398472,514.0
485,399304,0,0.399304,509.0
486,400140,0,0.40014,514.0
487,400972,0,0.400972,507.0
488,401804,0,0.401804,503.0
489,402640,0,0.40264,513.0
490,403472,0,0.403472,511.0
491,404304,0,0.404304,502.0
492,405140,0,0.40514,512.0
493,405972,0,0.405972,507.0
494,406804,0,0.406804,511.0
495,407640,0,0.40764,513.0
496,408472,0,0.408472,507.0
497,409304,0,0.409304,511.0
498,410140,0,0.41014,512.0
499,410972,0,0.410972,506.0
500,411808,0,0.411808,510.0
501,412640,0,0.41264,514.0
502,413472,0,0.413472,509.0
503,414308,0,0.414308,513.0
504,415140,0,0.41514,512.0
505,415972,0,0.415972,513.0
506,416808,0,0.416808,510.0
507,417640,0,0.41764,513.0
508,418472,0,0.418472,510.0
509,419308,0,0.419308,514.0
510,420140,0,0.42014,512.0
511,420972,0,0.420972,506.0
512,421808,0,0.421808,512.0
513,422640,0,0.42264,507.0
514,423472,0,0.423472,507.0
515,424308,0,0.424308,514.0
516,425140,0,0.42514,512.0
517,425972,0,0.425972,506.0
518,426808,0,0.426808,511.0
519,427640,0,0.42764,511.0
520,428472,0,0.428472,510.0
521,429308,0,0.429308,511.0
522,430140,0,0.43014,513.0
523,430972,0,0.430972,510.0
524,431808,0,0.431808,509.0
525,432640,0,0.43264,508.0
526,433472,0,0.433472,513.0
527,434308,0,0.434308,511.0
528,435140,0,0.43514,512.0
529,435972,0,0.435972,511.0
530,436808,0,0.436808,510.0
531,437640,0,0.43764,499.0
532,438472,0,0.438472,510.0
533,439308,0,0.439308,514.0
534,440140,0,0.44014,499.0
535,440976,0,0.440976,506.0
536,441808,0,0.441808,517.0
537,442640,0,0.44264,495.0
538,443476,0,0.443476,510.0
539,444308,0,0.444308,516.0
540,445140,0,0.44514,519.0
541,445976,0,0.445976,513.0
542,446808,0,0.446808,514.0
543,447640,0,0.44764,513.0
544,448476,0,0.448476,508.0
545,449308,0,0.449308,510.0
546,450140,0,0.45014,509.0
547,450976,0,0.450976,508.0
548,451808,0,0.451808,512.0
549,452640,0,0.45264,512.0
550,453476,0,0.453476,509.0
551,454308,0,0.454308,511.0
552,455140,0,0.45514,502.0
553,455976,0,0.455976,511.0
554,456808,0,0.456808,515.0
555,457640,0,0.45764,514.0
556,458476,0,0.458476,514.0
557,459308,0,0.459308,508.0
558,460140,0,0.46014,512.0
559,460976,0,0.460976,512.0
560,461808,0,0.461808,500.0
561,462640,0,0.46264,511.0
562,463476,0,0.463476,516.0
563,464308,0,0.464308,501.0
564,465144,0,0.465144,511.0
565,465976,0,0.465976,517.0
566,466808,0,0.466808,497.0
567,467644,0,0.467644,515.0
568,468476,0,0.468476,516.0
569,469308,0,0.469308,494.0
570,470144,0,0.470144,515.0
571,470976,0,0.470976,516.0
572,471808,0,0.471808,511.0
573,472644,0,0.472644,513.0
574,473476,0,0.473476,516.0
575,474308,0,0.474308,508.0
576,475144,0,0.475144,514.0
577,475976,0,0.475976,510.0
578,476808,0,0.476808,504.0
579,477644,0,0.477644,513.0
580,478476,0,0.478476,512.0
581,479308,0,0.479308,514.0
582,480144,0,0.480144,511.0
583,480976,0,0.480976,510.0
584,481808,0,0.481808,512.0
585,482644,0,0.482644,509.0
586,483476,0,0.483476,511.0
587,484308,0,0.484308,512.0
588,485144,0,0.485144,510.0
589,485976,0,0.485976,510.0
590,486808,0,0.486808,510.0
591,487644,0,0.487644,508.0
592,488476,0,0.488476,504.0
593,489308,0,0.489308,510.0
594,490144,0,0.490144,512.0
595,490976,0,0.490976,500.0
596,491808,0,0.491808,513.0
597,492644,0,0.492644,510.0
598,493476,0,0.493476,507.0
599,494312,0,0.494312,507.0
600,495144,0,0.495144,511.0
601,495976,0,0.495976,507.0
602,496812,0,0.496812,510.0
603,497644,0,0.497644,513.0
604,498476,0,0.498476,500.0
605,499312,0,0.499312,513.0
606,500144,0,0.500144,515.0
607,500976,0,0.500976,487.0
608,501812,0,0.501812,512.0
609,502644,0,0.502644,514.0
610,503476,0,0.503476,506.0
611,504312,0,0.504312,514.0
612,505144,0,0.505144,515.0
613,505976,0,0.505976,507.0
614,506812,0,0.506812,511.0
615,507644,0,0.507644,513.0
616,508476,0,0.508476,504.0
617,509312,0,0.509312,513.0
618,510144,0,0.510144,511.0
619,510976,0,0.510976,508.0
620,511812,0,0.511812,512.0
621,512644,0,0.512644,513.0
622,513476,0,0.513476,515.0
623,514312,0,0.514312,515.0
624,515144,0,0.515144,519.0
625,515976,0,0.515976,511.0
626,516812,0,0.516812,511.0
627,517644,0,0.517644,512.0
628,518476,0,0.518476,511.0
629,519312,0,0.519312,512.0
630,520144,0,0.520144,509.0
631,520980,0,0.52098,512.0
632,521812,0,0.521812,508.0
633,522644,0,0.522644,499.0
634,523480,0,0.52348,511.0
635,524312,0,0.524312,511.0
636,525144,0,0.525144,498.0
637,525980,0,0.52598,508.0
638,526812,0,0.526812,507.0
639,527644,0,0.527644,504.0
640,528480,0,0.52848,508.0
641,529312,0,0.529312,511.0
642,530144,0,0.530144,493.0
643,530980,0,0.53098,512.0
644,531812,0,0.531812,511.0
645,532644,0,0.532644,510.0
646,533480,0,0.53348,511.0
647,534312,0,0.534312,514.0
648,535144,0,0.535144,498.0
649,535980,0,0.53598,511.0
650,536812,0,0.536812,511.0
651,537644,0,0.537644,480.0
652,538480,0,0.53848,510.0
653,539312,0,0.539312,509.0
654,540144,0,0.540144,512.0
655,540980,0,0.54098,516.0
656,541812,0,0.541812,504.0
657,542644,0,0.542644,505.0
658,543480,0,0.54348,519.0
659,544312,0,0.544312,514.0
660,545144,0,0.545144,518.0
661,545980,0,0.54598,517.0
662,546812,0,0.546812,498.0
663,547648,0,0.547648,511.0
664,548480,0,0.54848,518.0
665,549312,0,0.549312,512.0
666,550148,0,0.550148,521.0
667,550980,0,0.55098,515.0
668,551812,0,0.551812,514.0
669,552648,0,0.552648,511.0
670,553480,0,0.55348,511.0
671,554312,0,0.554312,514.0
672,555148,0,0.555148,509.0
673,555980,0,0.55598,509.0
674,556812,0,0.556812,484.0
675,557648,0,0.557648,511.0
676,558480,0,0.55848,516.0
677,559312,0,0.559312,507.0
678,560148,0,0.560148,515.0
679,560980,0,0.56098,515.0
680,561812,0,0.561812,503.0
681,562648,0,0.562648,513.0
682,563480,0,0.56348,512.0
683,564312,0,0.564312,486.0
684,565148,0,0.565148,514.0
685,565980,0,0.56598,508.0
686,566812,0,0.566812,513.0
687,567648,0,0.567648,516.0
688,568480,0,0.56848,505.0
689,569312,0,0.569312,514.0
690,570148,0,0.570148,512.0
691,570980,0,0.57098,501.0
692,571816,0,0.571816,515.0
693,572648,0,0.572648,513.0
694,573480,0,0.57348,502.0
695,574316,0,0.574316,515.0
696,575148,0,0.575148,508.0
697,575980,0,0.57598,500.0
698,576816,0,0.576816,512.0
699,577648,0,0.577648,513.0
700,578480,0,0.57848,493.0
701,579316,0,0.579316,513.0
702,580148,0,0.580148,506.0
703,580980,0,0.58098,488.0
704,581816,0,0.581816,510.0
705,582648,0,0.582648,519.0
706,583480,0,0.58348,512.0
707,584316,0,0.584316,515.0
708,585148,0,0.585148,513.0
709,585980,0,0.58598,518.0
710,586816,0,0.586816,510.0
711,587648,0,0.587648,512.0
712,588480,0,0.58848,513.0
713,589316,0,0.589316,509.0
714,590148,0,0.590148,504.0
715,590980,0,0.59098,509.0
716,591816,0,0.591816,511.0
717,592648,0,0.592648,507.0
718,593480,0,0.59348,512.0
719,594316,0,0.594316,511.0
720,595148,0,0.595148,504.0
721,595980,0,0.59598,515.0
722,596816,0,0.596816,512.0
723,597648,0,0.597648,502.0
724,598484,0,0.598484,511.0
725,599316,0,0.599316,512.0
726,600148,0,0.600148,501.0
727,600984,0,0.600984,512.0
728,601816,0,0.601816,512.0
729,602648,0,0.602648,499.0
730,603484,0,0.603484,510.0
731,604316,0,0.604316,513.0
732,605148,0,0.605148,503.0
733,605984,0,0.605984,511.0
734,606816,0,0.606816,513.0
735,607648,0,0.607648,505.0
736,608484,0,0.608484,513.0
737,609316,0,0.609316,515.0
738,610148,0,0.610148,506.0
739,610984,0,0.610984,512.0
740,611816,0,0.611816,514.0
741,612648,0,0.612648,513.0
742,613484,0,0.613484,512.0
743,614316,0,0.614316,508.0
744,615148,0,0.615148,504.0
745,615984,0,0.615984,509.0
746,616816,0,0.616816,508.0
747,617648,0,0.617648,508.0
748,618484,0,0.618484,512.0
749,619316,0,0.619316,509.0
750,620148,0,0.620148,508.0
751,620984,0,0.620984,514.0
752,621816,0,0.621816,504.0
753,622648,0,0.622648,512.0
754,623484,0,0.623484,514.0
755,624316,0,0.624316,509.0
756,625152,0,0.625152,513.0
757,625984,0,0.625984,511.0
758,626816,0,0.626816,493.0
759,627652,0,0.627652,510.0
760,628484,0,0.628484,511.0
761,629316,0,0.629316,510.0
762,630152,0,0.630152,511.0
763,630984,0,0.630984,511.0
764,631816,0,0.631816,501.0
765,632652,0,0.632652,513.0
766,633484,0,0.633484,514.0
767,634316,0,0.634316,515.0
768,635152,0,0.635152,511.0
769,635984,0,0.635984,509.0
770,636816,0,0.636816,500.0
771,637652,0,0.637652,508.0
772,638484,0,0.638484,512.0
773,639316,0,0.639316,500.0
774,640152,0,0.640152,511.0
775,640984,0,0.640984,512.0
776,641816,0,0.641816,506.0
777,642652,0,0.642652,512.0
778,643484,0,0.643484,515.0
779,644316,0,0.644316,501.0
780,645152,0,0.645152,510.0
781,645984,0,0.645984,504.0
782,646816,0,0.646816,512.0
783,647652,0,0.647652,514.0
784,648484,0,0.648484,513.0
785,649316,0,0.649316,515.0
786,650152,0,0.650152,514.0
787,650984,0,0.650984,510.0
788,651820,0,0.65182,509.0
789,652652,0,0.652652,510.0
790,653484,0,0.653484,511.0
791,654320,0,0.65432,509.0
792,655152,0,0.655152,512.0
793,655984,0,0.655984,492.0
794,656820,0,0.65682,509.0
795,657652,0,0.657652,513.0
796,658484,0,0.658484,506.0
797,659320,0,0.65932,513.0
798,660152,0,0.660152,514.0
799,660984,0,0.660984,507.0
800,661820,0,0.66182,513.0
801,662652,0,0.662652,513.0
802,663484,0,0.663484,488.0
803,664320,0,0.66432,511.0
804,665152,0,0.665152,516.0
805,665984,0,0.665984,512.0
806,666820,0,0.66682,514.0
807,667656,0,0.667656,512.0
808,668484,0,0.668484,507.0
809,669320,0,0.66932,514.0
810,670152,0,0.670152,513.0
811,670984,0,0.670984,506.0
812,671820,0,0.67182,515.0
813,672652,0,0.672652,508.0
814,673484,0,0.673484,511.0
815,674320,0,0.67432,511.0
816,675152,0,0.675152,501.0
817,675984,0,0.675984,511.0
818,676820,0,0.67682,515.0
819,677652,0,0.677652,519.0
820,678484,0,0.678484,522.0
821,679320,0,0.67932,517.0
822,680152,0,0.680152,511.0
823,680988,0,0.680988,509.0
824,681820,0,0.68182,504.0
825,682652,0,0.682652,507.0
826,683488,0,0.683488,510.0
827,684320,0,0.68432,511.0
828,685152,0,0.685152,514.0
829,685988,0,0.685988,510.0
830,686820,0,0.68682,508.0
831,687652,0,0.687652,510.0
832,688488,0,0.688488,508.0
833,689320,0,0.68932,512.0
834,690152,0,0.690152,506.0
835,690988,0,0.690988,511.0
836,691820,0,0.69182,512.0
837,692652,0,0.692652,499.0
838,693488,0,0.693488,511.0
839,694320,0,0.69432,514.0
840,695152,0,0.695152,507.0
841,695988,0,0.695988,511.0
842,696820,0,0.69682,512.0
843,697652,0,0.697652,508.0
844,698488,0,0.698488,511.0
845,699320,0,0.69932,509.0
846,700152,0,0.700152,512.0
847,700988,0,0.700988,510.0
848,701820,0,0.70182,500.0
849,702652,0,0.702652,509.0
850,703488,0,0.703488,513.0
851,704320,0,0.70432,507.0
852,705152,0,0.705152,513.0
853,705988,0,0.705988,513.0
854,706820,0,0.70682,497.0
855,707656,0,0.707656,513.0
856,708488,0,0.708488,514.0
857,709320,0,0.70932,505.0
858,710156,0,0.710156,512.0
859,710988,0,0.710988,511.0
860,711820,0,0.71182,512.0
861,712656,0,0.712656,513.0
862,713488,0,0.713488,517.0
863,714320,0,0.71432,515.0
864,715156,0,0.715156,515.0
865,715988,0,0.715988,516.0
866,716820,0,0.71682,510.0
867,717656,0,0.717656,512.0
868,718488,0,0.718488,510.0
869,719320,0,0.71932,509.0
870,720156,0,0.720156,510.0
871,720988,0,0.720988,510.0
872,721820,0,0.72182,500.0
873,722656,0,0.722656,510.0
874,723488,0,0.723488,510.0
875,724320,0,0.72432,509.0
876,725156,0,0.725156,512.0
877,725988,0,0.725988,506.0
878,726820,0,0.72682,512.0
879,727656,0,0.727656,510.0
880,728488,0,0.728488,504.0
881,729320,0,0.72932,512.0
882,730156,0,0.730156,514.0
883,730988,0,0.730988,507.0
884,731820,0,0.73182,516.0
885,732656,0,0.732656,514.0
886,733488,0,0.733488,504.0
887,734324,0,0.734324,515.0
888,735156,0,0.735156,511.0
889,735988,0,0.735988,494.0
890,736824,0,0.736824,512.0
891,737656,0,0.737656,515.0
892,738488,0,0.738488,503.0
893,739324,0,0.739324,514.0
894,740156,0,0.740156,511.0
895,740988,0,0.740988,504.0
896,741824,0,0.741824,511.0
897,742656,0,0.742656,512.0
898,743488,0,0.743488,513.0
899,744324,0,0.744324,518.0
900,745156,0,0.745156,513.0
901,745988,0,0.745988,511.0
902,746824,0,0.746824,510.0
903,747656,0,0.747656,511.0
904,748488,0,0.748488,513.0
905,749324,0,0.749324,511.0
906,750156,0,0.750156,513.0
907,750988,0,0.750988,514.0
908,751824,0,0.751824,514.0
909,752656,0,0.752656,517.0
910,753488,0,0.753488,514.0
911,754324,0,0.754324,510.0
912,755156,0,0.755156,508.0
913,755988,0,0.755988,509.0
914,756824,0,0.756824,511.0
915,757656,0,0.757656,504.0
916,758488,0,0.758488,509.0
917,759324,0,0.759324,513.0
918,760156,0,0.760156,507.0
919,760992,0,0.760992,510.0
920,761824,0,0.761824,513.0
921,762656,0,0.762656,503.0
922,763492,0,0.763492,510.0
923,764324,0,0.764324,514.0
924,765156,0,0.765156,508.0
925,765992,0,0.765992,511.0
926,766824,0,0.766824,513.0
927,767656,0,0.767656,509.0
928,768492,0,0.768492,510.0
929,769324,0,0.769324,511.0
930,770156,0,0.770156,511.0
931,770992,0,0.770992,511.0
932,771824,0,0.771824,510.0
933,772656,0,0.772656,510.0
934,773492,0,0.773492,514.0
935,774324,0,0.774324,506.0
936,775156,0,0.775156,510.0
937,775992,0,0.775992,513.0
938,776824,0,0.776824,510.0
939,777656,0,0.777656,503.0
940,778492,0,0.778492,513.0
941,779324,0,0.779324,507.0
942,780156,0,0.780156,509.0
943,780992,0,0.780992,511.0
944,781824,0,0.781824,514.0
945,782656,0,0.782656,515.0
946,783492,0,0.783492,510.0
947,784324,0,0.784324,497.0
948,785160,0,0.78516,512.0
949,785992,0,0.785992,511.0
950,786824,0,0.786824,507.0
951,787660,0,0.78766,513.0
952,788492,0,0.788492,512.0
953,789324,0,0.789324,491.0
954,790160,0,0.79016,510.0
955,790992,0,0.790992,512.0
956,791824,0,0.791824,503.0
957,792660,0,0.79266,511.0
958,793492,0,0.793492,515.0
959,794324,0,0.794324,505.0
960,795160,0,0.79516,512.0
961,795992,0,0.795992,512.0
962,796824,0,0.796824,507.0
963,797660,0,0.79766,508.0
964,798492,0,0.798492,513.0
965,799324,0,0.799324,503.0
966,800160,0,0.80016,511.0
967,800992,0,0.800992,514.0
968,801824,0,0.801824,506.0
969,802660,0,0.80266,514.0
970,803492,0,0.803492,515.0
971,804324,0,0.804324,498.0
972,805160,0,0.80516,511.0
973,805992,0,0.805992,506.0
974,806824,0,0.806824,509.0
975,807660,0,0.80766,513.0
976,808492,0,0.808492,507.0
977,809324,0,0.809324,503.0
978,810160,0,0.81016,515.0
979,810992,0,0.810992,503.0
980,811828,0,0.811828,511.0
981,812660,0,0.81266,513.0
982,813492,0,0.813492,513.0
983,814328,0,0.814328,512.0
984,815160,0,0.81516,512.0
985,815992,0,0.815992,510.0
986,816828,0,0.816828,512.0
987,817660,0,0.81766,513.0
988,818492,0,0.818492,518.0
989,819328,0,0.819328,513.0
990,820160,0,0.82016,512.0
991,820992,0,0.820992,507.0
992,821828,0,0.821828,509.0
993,822660,0,0.82266,509.0
994,823492,0,0.823492,510.0
995,824328,0,0.824328,512.0
996,825160,0,0.82516,510.0
997,825992,0,0.825992,496.0
998,826828,0,0.826828,510.0
999,827660,0,0.82766,510.0
1000,828492,0,0.828492,507.0
1001,829328,0,0.829328,513.0
1002,830160,0,0.83016,510.0
1003,830992,0,0.830992,508.0
1004,831828,0,0.831828,513.0
1005,832660,0,0.83266,507.0
1006,833492,0,0.833492,516.0
1007,834328,0,0.834328,512.0
1008,835160,0,0.83516,502.0
1009,835992,0,0.835992,506.0
1010,836828,0,0.836828,512.0
1011,837660,0,0.83766,503.0
1012,838496,0,0.838496,515.0
1013,839328,0,0.839328,514.0
1014,840160,0,0.84016,506.0
1015,840996,0,0.840996,515.0
1016,841828,0,0.841828,515.0
1017,842660,0,0.84266,502.0
1018,843496,0,0.843496,511.0
1019,844328,0,0.844328,510.0
1020,845160,0,0.84516,511.0
1021,845996,0,0.845996,510.0
1022,846828,0,0.846828,513.0
1023,847660,0,0.84766,514.0
1024,848496,0,0.848496,510.0
1025,849328,0,0.849328,511.0
1026,850160,0,0.85016,510.0
1027,850996,0,0.850996,510.0
1028,851828,0,0.851828,513.0
1029,852660,0,0.85266,508.0
1030,853496,0,0.853496,512.0
1031,854328,0,0.854328,512.0
1032,855160,0,0.85516,508.0
1033,855996,0,0.855996,510.0
1034,856828,0,0.856828,513.0
1035,857660,0,0.85766,501.0
1036,858496,0,0.858496,514.0
1037,859328,0,0.859328,507.0
1038,860168,0,0.860168,510.0
1039,860996,0,0.860996,512.0
1040,861828,0,0.861828,499.0
1041,862660,0,0.86266,510.0
1042,863496,0,0.863496,517.0
1043,864328,0,0.864328,497.0
1044,865160,0,0.86516,513.0
1045,865996,0,0.865996,515.0
1046,866828,0,0.866828,504.0
1047,867664,0,0.867664,512.0
1048,868496,0,0.868496,513.0
1049,869328,0,0.869328,507.0
1050,870164,0,0.870164,511.0
1051,870996,0,0.870996,514.0
1052,871828,0,0.871828,514.0
1053,872664,0,0.872664,511.0
1054,873496,0,0.873496,514.0
1055,874328,0,0.874328,512.0
1056,875164,0,0.875164,512.0
1057,875996,0,0.875996,511.0
1058,876828,0,0.876828,510.0
1059,877664,0,0.877664,512.0
1060,878496,0,0.878496,510.0
1061,879328,0,0.879328,512.0
1062,880164,0,0.880164,513.0
1063,880996,0,0.880996,511.0
1064,881828,0,0.881828,515.0
1065,882664,0,0.882664,512.0
1066,883496,0,0.883496,510.0
1067,884328,0,0.884328,511.0
1068,885164,0,0.885164,511.0
1069,885996,0,0.885996,507.0
1070,886828,0,0.886828,509.0
1071,887664,0,0.887664,510.0
1072,888496,0,0.888496,509.0
1073,889328,0,0.889328,514.0
1074,890164,0,0.890164,514.0
1075,890996,0,0.890996,501.0
1076,891832,0,0.891832,513.0
1077,892664,0,0.892664,510.0
1078,893496,0,0.893496,501.0
1079,894332,0,0.894332,512.0
1080,895164,0,0.895164,512.0
1081,895996,0,0.895996,507.0
1082,896832,0,0.896832,511.0
1083,897664,0,0.897664,511.0
1084,898496,0,0.898496,512.0
1085,899332,0,0.899332,514.0
1086,900164,0,0.900164,511.0
1087,900996,0,0.900996,484.0
1088,901832,0,0.901832,508.0
1089,902664,0,0.902664,516.0
1090,903496,0,0.903496,509.0
1091,904332,0,0.904332,512.0
1092,905164,0,0.905164,514.0
1093,905996,0,0.905996,509.0
1094,906832,0,0.906832,511.0
1095,907664,0,0.907664,515.0
1096,908496,0,0.908496,510.0
1097,909332,0,0.909332,510.0
1098,910164,0,0.910164,513.0
1099,910996,0,0.910996,506.0
1100,911832,0,0.911832,512.0
1101,912664,0,0.912664,516.0
1102,913496,0,0.913496,512.0
1103,914332,0,0.914332,511.0
1104,915164,0,0.915164,511.0
1105,915996,0,0.915996,511.0
1106,916832,0,0.916832,512.0
1107,917664,0,0.917664,512.0
1108,918496,0,0.918496,509.0
1109,919332,0,0.919332,510.0
1110,920164,0,0.920164,512.0
1111,921000,0,0.921,511.0
1112,921832,0,0.921832,513.0
1113,922664,0,0.922664,504.0
1114,923500,0,0.9235,512.0
1115,924332,0,0.924332,512.0
1116,925164,0,0.925164,506.0
1117,926000,0,0.926,510.0
1118,926832,0,0.926832,509.0
1119,927664,0,0.927664,509.0
1120,928500,0,0.9285,511.0
1121,929332,0,0.929332,513.0
1122,930164,0,0.930164,482.0
1123,931000,0,0.931,512.0
1124,931832,0,0.931832,515.0
1125,932664,0,0.932664,510.0
1126,933500,0,0.9335,511.0
1127,934332,0,0.934332,511.0
1128,935164,0,0.935164,506.0
1129,936000,0,0.936,513.0
1130,936832,0,0.936832,512.0
1131,937664,0,0.937664,482.0
1132,938500,0,0.9385,508.0
1133,939332,0,0.939332,514.0
1134,940164,0,0.940164,518.0
1135,941000,0,0.941,516.0
1136,941832,0,0.941832,509.0
1137,942664,0,0.942664,514.0
1138,943500,0,0.9435,513.0
1139,944332,0,0.944332,501.0
1140,945164,0,0.945164,514.0
1141,946000,0,0.946,517.0
1142,946832,0,0.946832,513.0
1143,947668,0,0.947668,513.0
1144,948500,0,0.9485,513.0
1145,949332,0,0.949332,510.0
1146,950168,0,0.950168,509.0
1147,951000,0,0.951,510.0
1148,951832,0,0.951832,511.0
1149,952668,0,0.952668,511.0
1150,953500,0,0.9535,516.0
1151,954332,0,0.954332,508.0
1152,955168,0,0.955168,509.0
1153,956000,0,0.956,510.0
1154,956832,0,0.956832,498.0
1155,957668,0,0.957668,511.0
1156,958500,0,0.9585,516.0
1157,959332,0,0.959332,511.0
1158,960168,0,0.960168,511.0
1159,961000,0,0.961,514.0
1160,961832,0,0.961832,509.0
1161,962668,0,0.962668,512.0
1162,963500,0,0.9635,511.0
1163,964332,0,0.964332,486.0
1164,965168,0,0.965168,511.0
1165,966000,0,0.966,508.0
1166,966832,0,0.966832,513.0
1167,967668,0,0.967668,515.0
1168,968500,0,0.9685,507.0
1169,969332,0,0.969332,512.0
1170,970168,0,0.970168,514.0
1171,971000,0,0.971,498.0
1172,971836,0,0.971836,512.0
1173,972668,0,0.972668,516.0
1174,973500,0,0.9735,500.0
1175,974336,0,0.974336,516.0
1176,975168,0,0.975168,516.0
1177,976000,0,0.976,493.0
1178,976836,0,0.976836,511.0
1179,977668,0,0.977668,517.0
1180,978500,0,0.9785,495.0
1181,979336,0,0.979336,510.0
1182,980168,0,0.980168,511.0
1183,981000,0,0.981,504.0
1184,981836,0,0.981836,515.0
1185,982668,0,0.982668,512.0
1186,983500,0,0.9835,507.0
1187,984336,0,0.984336,516.0
1188,985168,0,0.985168,512.0
1189,986000,0,0.986,517.0
1190,986836,0,0.986836,510.0
1191,987668,0,0.987668,510.0
1192,988500,0,0.9885,500.0
1193,989336,0,0.989336,513.0
1194,990168,0,0.990168,511.0
1195,991000,0,0.991,502.0
1196,991836,0,0.991836,511.0
1197,992668,0,0.992668,506.0
1198,993500,0,0.9935,503.0
1199,994336,0,0.994336,512.0
1200,995168,0,0.995168,511.0
1201,996000,0,0.996,512.0
1202,996836,0,0.996836,510.0
1203,997668,0,0.997668,506.0
1204,998504,0,0.998504,506.0
1205,999336,0,0.999336,512.0
1206,1000168,0,1.000168,508.0
1207,1001004,0,1.001004,512.0
1208,1001836,0,1.001836,513.0
1209,1002668,0,1.002668,507.0
1210,1003504,0,1.003504,507.0
1211,1004336,0,1.004336,513.0
1212,1005168,0,1.005168,510.0
1213,1006004,0,1.006004,512.0
1214,1006836,0,1.006836,512.0
1215,1007668,0,1.007668,512.0
1216,1008504,0,1.008504,509.0
1217,1009336,0,1.009336,501.0
1218,1010168,0,1.010168,511.0
1219,1011004,0,1.011004,511.0
1220,1011836,0,1.011836,501.0
1221,1012668,0,1.012668,511.0
1222,1013504,0,1.013504,516.0
1223,1014336,0,1.014336,512.0
1224,1015168,0,1.015168,508.0
1225,1016004,0,1.016004,510.0
1226,1016840,0,1.01684,513.0
1227,1017668,0,1.017668,511.0
1228,1018504,0,1.018504,513.0
1229,1019336,0,1.019336,512.0
1230,1020168,0,1.020168,509.0
1231,1021004,0,1.021004,509.0
1232,1021836,0,1.021836,508.0
1233,1022668,0,1.022668,509.0
1234,1023504,0,1.023504,509.0
1235,1024336,0,1.024336,509.0
1236,1025168,0,1.025168,510.0
1237,1026004,0,1.026004,510.0
1238,1026836,0,1.026836,513.0
1239,1027672,0,1.027672,512.0
1240,1028504,0,1.028504,514.0
1241,1029336,0,1.029336,503.0
1242,1030172,0,1.030172,512.0
1243,1031004,0,1.031004,510.0
1244,1031836,0,1.031836,513.0
1245,1032672,0,1.032672,513.0
1246,1033504,0,1.033504,513.0
1247,1034336,0,1.034336,513.0
1248,1035172,0,1.035172,514.0
1249,1036004,0,1.036004,498.0
1250,1036836,0,1.036836,511.0
1251,1037672,0,1.037672,513.0
1252,1038504,0,1.038504,482.0
1253,1039336,0,1.039336,512.0
1254,1040172,0,1.040172,512.0
1255,1041004,0,1.041004,510.0
1256,1041836,0,1.041836,513.0
1257,1042672,0,1.042672,512.0
1258,1043504,0,1.043504,512.0
1259,1044336,0,1.044336,511.0
1260,1045172,0,1.045172,504.0
1261,1046004,0,1.046004,511.0
1262,1046836,0,1.046836,513.0
1263,1047672,0,1.047672,515.0
1264,1048504,0,1.048504,514.0
1265,1049336,0,1.049336,512.0
1266,1050172,0,1.050172,513.0
1267,1051004,0,1.051004,512.0
1268,1051836,0,1.051836,514.0
1269,1052672,0,1.052672,511.0
1270,1053504,0,1.053504,509.0
1271,1054340,0,1.05434,511.0
1272,1055172,0,1.055172,510.0
1273,1056004,0,1.056004,506.0
1274,1056840,0,1.05684,509.0
1275,1057672,0,1.057672,512.0
1276,1058504,0,1.058504,507.0
1277,1059340,0,1.05934,510.0
1278,1060172,0,1.060172,511.0
1279,1061004,0,1.061004,506.0
1280,1061840,0,1.06184,513.0
1281,1062672,0,1.062672,513.0
1282,1063504,0,1.063504,515.0
1283,1064340,0,1.06434,512.0
1284,1065172,0,1.065172,509.0
1285,1066004,0,1.066004,513.0
1286,1066840,0,1.06684,510.0
1287,1067672,0,1.067672,505.0
1288,1068504,0,1.068504,514.0
1289,1069340,0,1.06934,506.0
1290,1070172,0,1.070172,514.0
1291,1071004,0,1.071004,513.0
1292,1071840,0,1.07184,501.0
1293,1072672,0,1.072672,511.0
1294,1073504,0,1.073504,517.0
1295,1074340,0,1.07434,513.0
1296,1075172,0,1.075172,512.0
1297,1076004,0,1.076004,506.0
1298,1076840,0,1.07684,514.0
1299,1077672,0,1.077672,511.0
1300,1078508,0,1.078508,505.0
1301,1079340,0,1.07934,513.0
1302,1080172,0,1.080172,512.0
1303,1081008,0,1.081008,510.0
1304,1081840,0,1.08184,512.0
1305,1082672,0,1.082672,516.0
1306,1083508,0,1.083508,509.0
1307,1084340,0,1.08434,509.0
1308,1085172,0,1.085172,512.0
1309,1086008,0,1.086008,512.0
1310,1086840,0,1.08684,512.0
1311,1087672,0,1.087672,511.0
1312,1088508,0,1.088508,513.0
1313,1089340,0,1.08934,513.0
1314,1090172,0,1.090172,512.0
1315,1091008,0,1.091008,510.0
1316,1091840,0,1.09184,505.0
1317,1092672,0,1.092672,513.0
1318,1093508,0,1.093508,511.0
1319,1094340,0,1.09434,508.0
1320,1095172,0,1.095172,512.0
1321,1096008,0,1.096008,498.0
1322,1096840,0,1.09684,512.0
1323,1097672,0,1.097672,513.0
1324,1098508,0,1.098508,486.0
1325,1099340,0,1.09934,512.0
1326,1100172,0,1.100172,516.0
1327,1101008,0,1.101008,513.0
1328,1101840,0,1.10184,515.0
1329,1102672,0,1.102672,513.0
1330,1103508,0,1.103508,511.0
1331,1104340,0,1.10434,511.0
1332,1105176,0,1.105176,509.0
1333,1106008,0,1.106008,513.0
1334,1106840,0,1.10684,512.0
1335,1107676,0,1.107676,510.0
1336,1108508,0,1.108508,510.0
1337,1109340,0,1.10934,496.0
1338,1110176,0,1.110176,508.0
1339,1111008,0,1.111008,511.0
1340,1111840,0,1.11184,511.0
1341,1112676,0,1.112676,515.0
1342,1113508,0,1.113508,512.0
1343,1114340,0,1.11434,512.0
1344,1115176,0,1.115176,509.0
1345,1116008,0,1.116008,510.0
1346,1116840,0,1.11684,509.0
1347,1117676,0,1.117676,513.0
1348,1118508,0,1.118508,508.0
1349,1119340,0,1.11934,509.0
1350,1120176,0,1.120176,516.0
1351,1121008,0,1.121008,514.0
1352,1121840,0,1.12184,515.0
1353,1122676,0,1.122676,502.0
1354,1123508,0,1.123508,511.0
1355,1124340,0,1.12434,507.0
1356,1125176,0,1.125176,497.0
1357,1126008,0,1.126008,508.0
1358,1126840,0,1.12684,517.0
1359,1127676,0,1.127676,511.0
1360,1128508,0,1.128508,512.0
1361,1129340,0,1.12934,495.0
1362,1130176,0,1.130176,509.0
1363,1131008,0,1.131008,514.0
1364,1131844,0,1.131844,509.0
1365,1132676,0,1.132676,515.0
1366,1133508,0,1.133508,518.0
1367,1134344,0,1.134344,513.0
1368,1135176,0,1.135176,512.0
1369,1136008,0,1.136008,499.0
1370,1136844,0,1.136844,515.0
1371,1137676,0,1.137676,515.0
1372,1138508,0,1.138508,507.0
1373,1139344,0,1.139344,515.0
1374,1140176,0,1.140176,513.0
1375,1141008,0,1.141008,511.0
1376,1141844,0,1.141844,511.0
1377,1142676,0,1.142676,509.0
1378,1143508,0,1.143508,512.0
1379,1144344,0,1.144344,510.0
1380,1145176,0,1.145176,511.0
1381,1146008,0,1.146008,513.0
1382,1146844,0,1.146844,514.0
1383,1147676,0,1.147676,512.0
1384,1148508,0,1.148508,515.0
1385,1149344,0,1.149344,512.0
1386,1150176,0,1.150176,511.0
1387,1151008,0,1.151008,514.0
1388,1151844,0,1.151844,513.0
1389,1152676,0,1.152676,514.0
1390,1153508,0,1.153508,507.0
1391,1154344,0,1.154344,509.0
1392,1155176,0,1.155176,511.0
1393,1156008,0,1.156008,501.0
1394,1156844,0,1.156844,509.0
1395,1157676,0,1.157676,512.0
1396,1158512,0,1.158512,494.0
1397,1159344,0,1.159344,511.0
1398,1160176,0,1.160176,511.0
1399,1161012,0,1.161012,511.0
1400,1161844,0,1.161844,514.0
1401,1162676,0,1.162676,502.0
1402,1163512,0,1.163512,512.0
1403,1164344,0,1.164344,513.0
1404,1165176,0,1.165176,504.0
1405,1166012,0,1.166012,512.0
1406,1166844,0,1.166844,511.0
1407,1167676,0,1.167676,503.0
1408,1168512,0,1.168512,511.0
1409,1169344,0,1.169344,501.0
1410,1170176,0,1.170176,510.0
1411,1171012,0,1.171012,513.0
1412,1171844,0,1.171844,517.0
1413,1172676,0,1.172676,505.0
1414,1173512,0,1.173512,509.0
1415,1174344,0,1.174344,514.0
1416,1175176,0,1.175176,514.0
1417,1176012,0,1.176012,497.0
1418,1176844,0,1.176844,507.0
1419,1177676,0,1.177676,508.0
1420,1178512,0,1.178512,500.0
1421,1179344,0,1.179344,512.0
1422,1180176,0,1.180176,513.0
1423,1181012,0,1.181012,515.0
1424,1181844,0,1.181844,518.0
1425,1182676,0,1.182676,504.0
1426,1183512,0,1.183512,517.0
1427,1184344,0,1.184344,513.0
1428,1185180,0,1.18518,516.0
1429,1186012,0,1.186012,512.0
1430,1186844,0,1.186844,510.0
1431,1187680,0,1.18768,501.0
1432,1188512,0,1.188512,513.0
1433,1189344,0,1.189344,499.0
1434,1190180,0,1.19018,512.0
1435,1191012,0,1.191012,512.0
1436,1191844,0,1.191844,489.0
1437,1192680,0,1.19268,498.0
1438,1193512,0,1.193512,522.0
1439,1194344,0,1.194344,518.0
1440,1195180,0,1.19518,520.0
1441,1196012,0,1.196012,507.0
1442,1196844,0,1.196844,517.0
1443,1197680,0,1.19768,511.0
1444,1198512,0,1.198512,487.0
1445,1199344,0,1.199344,516.0
1446,1200180,0,1.20018,518.0
1447,1201012,0,1.201012,516.0
1448,1201844,0,1.201844,518.0
1449,1202680,0,1.20268,499.0
1450,1203512,0,1.203512,511.0
1451,1204344,0,1.204344,514.0
1452,1205180,0,1.20518,506.0
1453,1206012,0,1.206012,515.0
1454,1206844,0,1.206844,516.0
1455,1207680,0,1.20768,512.0
1456,1208512,0,1.208512,513.0
1457,1209352,0,1.209352,508.0
1458,1210180,0,1.21018,508.0
1459,1211012,0,1.211012,513.0
1460,1211844,0,1.211844,511.0
1461,1212680,0,1.21268,510.0
1462,1213512,0,1.213512,511.0
1463,1214348,0,1.214348,510.0
1464,1215180,0,1.21518,514.0
1465,1216012,0,1.216012,497.0
1466,1216848,0,1.216848,509.0
1467,1217680,0,1.21768,514.0
1468,1218512,0,1.218512,511.0
1469,1219348,0,1.219348,512.0
1470,1220180,0,1.22018,513.0
1471,1221012,0,1.221012,512.0
1472,1221848,0,1.221848,517.0
1473,1222680,0,1.22268,508.0
1474,1223512,0,1.223512,511.0
1475,1224348,0,1.224348,513.0
1476,1225180,0,1.22518,508.0
1477,1226012,0,1.226012,511.0
1478,1226848,0,1.226848,512.0
1479,1227680,0,1.22768,511.0
1480,1228512,0,1.228512,495.0
1481,1229348,0,1.229348,488.0
1482,1230180,0,1.23018,502.0
1483,1231012,0,1.231012,504.0
1484,1231848,0,1.231848,493.0
1485,1232680,0,1.23268,509.0
1486,1233512,0,1.233512,520.0
1487,1234348,0,1.234348,513.0
1488,1235180,0,1.23518,512.0
1489,1236012,0,1.236012,515.0
1490,1236848,0,1.236848,511.0
1491,1237680,0,1.23768,510.0
1492,1238512,0,1.238512,512.0
1493,1239348,0,1.239348,510.0
1494,1240180,0,1.24018,514.0
1495,1241016,0,1.241016,504.0
1496,1241848,0,1.241848,510.0
1497,1242680,0,1.24268,504.0
1498,1243516,0,1.243516,510.0
1499,1244348,0,1.244348,504.0
1500,1245180,0,1.24518,510.0
1501,1246016,0,1.246016,515.0
1502,1246848,0,1.246848,521.0
1503,1247680,0,1.24768,512.0
1504,1248516,0,1.248516,511.0
1505,1249348,0,1.249348,515.0
1506,1250180,0,1.25018,515.0
1507,1251016,0,1.251016,515.0
1508,1251848,0,1.251848,516.0
1509,1252680,0,1.25268,508.0
1510,1253516,0,1.253516,521.0
1511,1254348,0,1.254348,513.0
1512,1255180,0,1.25518,514.0
1513,1256016,0,1.256016,501.0
1514,1256848,0,1.256848,508.0
1515,1257680,0,1.25768,511.0
1516,1258516,0,1.258516,507.0
1517,1259348,0,1.259348,513.0
1518,1260180,0,1.26018,519.0
1519,1261016,0,1.261016,510.0
1520,1261848,0,1.261848,507.0
1521,1262680,0,1.26268,494.0
1522,1263516,0,1.263516,509.0
1523,1264348,0,1.264348,508.0
1524,1265180,0,1.26518,507.0
1525,1266016,0,1.266016,511.0
1526,1266848,0,1.266848,531.0
1527,1267684,0,1.267684,514.0
1528,1268516,0,1.268516,514.0
1529,1269348,0,1.269348,516.0
1530,1270184,0,1.270184,507.0
1531,1271016,0,1.271016,513.0
1532,1271848,0,1.271848,513.0
1533,1272684,0,1.272684,515.0
1534,1273516,0,1.273516,522.0
1535,1274348,0,1.274348,511.0
1536,1275184,0,1.275184,512.0
1537,1276016,0,1.276016,504.0
1538,1276848,0,1.276848,511.0
1539,1277684,0,1.277684,513.0
1540,1278516,0,1.278516,511.0
1541,1279348,0,1.279348,511.0
1542,1280184,0,1.280184,514.0
1543,1281016,0,1.281016,512.0
1544,1281848,0,1.281848,509.0
1545,1282684,0,1.282684,513.0
1546,1283516,0,1.283516,510.0
1547,1284348,0,1.284348,513.0
1548,1285184,0,1.285184,513.0
1549,1286016,0,1.286016,511.0
1550,1286848,0,1.286848,529.0
1551,1287684,0,1.287684,512.0
1552,1288516,0,1.288516,512.0
1553,1289348,0,1.289348,514.0
1554,1290184,0,1.290184,514.0
1555,1291016,0,1.291016,511.0
1556,1291848,0,1.291848,510.0
1557,1292684,0,1.292684,511.0
1558,1293516,0,1.293516,514.0
1559,1294352,0,1.294352,510.0
1560,1295184,0,1.295184,511.0
1561,1296016,0,1.296016,505.0
1562,1296852,0,1.296852,508.0
1563,1297684,0,1.297684,513.0
1564,1298516,0,1.298516,507.0
1565,1299352,0,1.299352,514.0
1566,1300184,0,1.300184,518.0
1567,1301016,0,1.301016,509.0
1568,1301852,0,1.301852,509.0
1569,1302684,0,1.302684,508.0
1570,1303516,0,1.303516,512.0
1571,1304352,0,1.304352,512.0
1572,1305184,0,1.305184,506.0
1573,1306016,0,1.306016,508.0
1574,1306852,0,1.306852,520.0
1575,1307684,0,1.307684,507.0
1576,1308516,0,1.308516,511.0
1577,1309352,0,1.309352,513.0
1578,1310184,0,1.310184,508.0
1579,1311016,0,1.311016,508.0
1580,1311852,0,1.311852,495.0
1581,1312684,0,1.312684,508.0
1582,1313516,0,1.313516,519.0
1583,1314352,0,1.314352,508.0
1584,1315184,0,1.315184,508.0
1585,1316016,0,1.316016,511.0
1586,1316852,0,1.316852,511.0
1587,1317684,0,1.317684,511.0
1588,1318516,0,1.318516,515.0
1589,1319352,0,1.319352,509.0
1590,1320184,0,1.320184,521.0
1591,1321020,0,1.32102,515.0
1592,1321852,0,1.321852,515.0
1593,1322684,0,1.322684,524.0
1594,1323520,0,1.32352,520.0
1595,1324352,0,1.324352,520.0
1596,1325184,0,1.325184,519.0
1597,1326020,0,1.32602,517.0
1598,1326852,0,1.326852,529.0
1599,1327684,0,1.327684,515.0
1600,1328520,0,1.32852,516.0
1601,1329352,0,1.329352,507.0
1602,1330184,0,1.330184,515.0
1603,1331020,0,1.33102,512.0
1604,1331852,0,1.331852,511.0
1605,1332684,0,1.332684,512.0
1606,1333520,0,1.33352,516.0
1607,1334352,0,1.334352,514.0
1608,1335184,0,1.335184,512.0
1609,1336020,0,1.33602,503.0
1610,1336852,0,1.336852,504.0
1611,1337684,0,1.337684,510.0
1612,1338520,0,1.33852,505.0
1613,1339352,0,1.339352,510.0
1614,1340184,0,1.340184,514.0
1615,1341020,0,1.34102,505.0
1616,1341852,0,1.341852,508.0
1617,1342684,0,1.342684,506.0
1618,1343520,0,1.34352,513.0
1619,1344352,0,1.344352,513.0
1620,1345184,0,1.345184,504.0
1621,1346020,0,1.34602,512.0
1622,1346852,0,1.346852,527.0
1623,1347688,0,1.347688,513.0
1624,1348520,0,1.34852,512.0
1625,1349352,0,1.349352,511.0
1626,1350188,0,1.350188,509.0
1627,1351020,0,1.35102,511.0
1628,1351852,0,1.351852,505.0
1629,1352688,0,1.352688,511.0
1630,1353520,0,1.35352,519.0
1631,1354352,0,1.354352,511.0
1632,1355188,0,1.355188,511.0
1633,1356020,0,1.35602,508.0
1634,1356852,0,1.356852,510.0
1635,1357688,0,1.357688,508.0
1636,1358520,0,1.35852,498.0
1637,1359352,0,1.359352,510.0
1638,1360188,0,1.360188,514.0
1639,1361020,0,1.36102,510.0
1640,1361852,0,1.361852,512.0
1641,1362688,0,1.362688,505.0
1642,1363520,0,1.36352,512.0
1643,1364352,0,1.364352,512.0
1644,1365188,0,1.365188,505.0
1645,1366024,0,1.366024,512.0
1646,1366852,0,1.366852,524.0
1647,1367688,0,1.367688,513.0
1648,1368520,0,1.36852,512.0
1649,1369352,0,1.369352,499.0
1650,1370188,0,1.370188,511.0
1651,1371020,0,1.37102,507.0
1652,1371856,0,1.371856,506.0
1653,1372688,0,1.372688,511.0
1654,1373520,0,1.37352,514.0
1655,1374356,0,1.374356,513.0
1656,1375188,0,1.375188,513.0
1657,1376020,0,1.37602,512.0
1658,1376856,0,1.376856,506.0
1659,1377688,0,1.377688,513.0
1660,1378520,0,1.37852,511.0
1661,1379356,0,1.379356,515.0
1662,1380188,0,1.380188,512.0
1663,1381020,0,1.38102,511.0
1664,1381856,0,1.381856,507.0
1665,1382688,0,1.382688,519.0
1666,1383520,0,1.38352,512.0
1667,1384356,0,1.384356,510.0
1668,1385188,0,1.385188,498.0
1669,1386020,0,1.38602,508.0
1670,1386856,0,1.386856,514.0
1671,1387688,0,1.387688,511.0
1672,1388520,0,1.38852,513.0
1673,1389356,0,1.389356,514.0
1674,1390188,0,1.390188,512.0
1675,1391020,0,1.39102,510.0
1676,1391856,0,1.391856,492.0
1677,1392688,0,1.392688,510.0
1678,1393520,0,1.39352,522.0
1679,1394356,0,1.394356,511.0
1680,1395188,0,1.395188,515.0
1681,1396020,0,1.39602,521.0
1682,1396856,0,1.396856,510.0
1683,1397688,0,1.397688,509.0
1684,1398524,0,1.398524,510.0
1685,1399356,0,1.399356,513.0
1686,1400188,0,1.400188,515.0
1687,1401024,0,1.401024,514.0
1688,1401856,0,1.401856,513.0
1689,1402688,0,1.402688,504.0
1690,1403524,0,1.403524,511.0
1691,1404356,0,1.404356,515.0
1692,1405188,0,1.405188,503.0
1693,1406024,0,1.406024,511.0
1694,1406856,0,1.406856,514.0
1695,1407688,0,1.407688,516.0
1696,1408524,0,1.408524,513.0
1697,1409356,0,1.409356,500.0
1698,1410188,0,1.410188,513.0
1699,1411024,0,1.411024,507.0
1700,1411856,0,1.411856,511.0
1701,1412688,0,1.412688,511.0
1702,1413524,0,1.413524,516.0
1703,1414356,0,1.414356,512.0
1704,1415188,0,1.415188,508.0
1705,1416024,0,1.416024,506.0
1706,1416856,0,1.416856,510.0
1707,1417688,0,1.417688,514.0
1708,1418524,0,1.418524,512.0
1709,1419356,0,1.419356,513.0
1710,1420188,0,1.420188,509.0
1711,1421024,0,1.421024,509.0
1712,1421856,0,1.421856,513.0
1713,1422688,0,1.422688,508.0
1714,1423524,0,1.423524,514.0
1715,1424356,0,1.424356,510.0
1716,1425192,0,1.425192,508.0
1717,1426024,0,1.426024,511.0
1718,1426856,0,1.426856,516.0
1719,1427692,0,1.427692,512.0
1720,1428524,0,1.428524,511.0
1721,1429356,0,1.429356,500.0
1722,1430192,0,1.430192,510.0
1723,1431024,0,1.431024,509.0
1724,1431856,0,1.431856,507.0
1725,1432692,0,1.432692,511.0
1726,1433524,0,1.433524,521.0
1727,1434356,0,1.434356,510.0
1728,1435192,0,1.435192,514.0
1729,1436024,0,1.436024,509.0
1730,1436856,0,1.436856,515.0
1731,1437692,0,1.437692,512.0
1732,1438524,0,1.438524,508.0
1733,1439356,0,1.439356,511.0
1734,1440192,0,1.440192,514.0
1735,1441024,0,1.441024,511.0
1736,1441856,0,1.441856,509.0
1737,1442692,0,1.442692,508.0
1738,1443524,0,1.443524,511.0
1739,1444356,0,1.444356,513.0
1740,1445192,0,1.445192,509.0
1741,1446024,0,1.446024,508.0
1742,1446856,0,1.446856,514.0
1743,1447692,0,1.447692,511.0
1744,1448524,0,1.448524,513.0
1745,1449356,0,1.449356,499.0
1746,1450192,0,1.450192,510.0
1747,1451024,0,1.451024,510.0
1748,1451856,0,1.451856,515.0
1749,1452692,0,1.452692,513.0
1750,1453524,0,1.453524,515.0
1751,1454360,0,1.45436,511.0
1752,1455192,0,1.455192,507.0
1753,1456024,0,1.456024,518.0
1754,1456860,0,1.45686,512.0
1755,1457692,0,1.457692,512.0
1756,1458524,0,1.458524,511.0
1757,1459360,0,1.45936,512.0
1758,1460192,0,1.460192,512.0
1759,1461024,0,1.461024,507.0
1760,1461860,0,1.46186,514.0
1761,1462692,0,1.462692,512.0
1762,1463524,0,1.463524,515.0
1763,1464360,0,1.46436,509.0
1764,1465192,0,1.465192,503.0
1765,1466024,0,1.466024,510.0
1766,1466860,0,1.46686,519.0
1767,1467692,0,1.467692,512.0
1768,1468524,0,1.468524,511.0
1769,1469360,0,1.46936,512.0
1770,1470192,0,1.470192,509.0
1771,1471024,0,1.471024,508.0
1772,1471860,0,1.47186,505.0
1773,1472692,0,1.472692,508.0
1774,1473524,0,1.473524,513.0
1775,1474360,0,1.47436,511.0
1776,1475192,0,1.475192,511.0
1777,1476024,0,1.476024,507.0
1778,1476860,0,1.47686,511.0
1779,1477692,0,1.477692,510.0
1780,1478524,0,1.478524,490.0
1781,1479360,0,1.47936,512.0
1782,1480192,0,1.480192,516.0
1783,1481028,0,1.481028,510.0
1784,1481860,0,1.48186,512.0
1785,1482692,0,1.482692,519.0
1786,1483528,0,1.483528,513.0
1787,1484360,0,1.48436,514.0
1788,1485192,0,1.485192,511.0
1789,1486028,0,1.486028,509.0
1790,1486860,0,1.48686,512.0
1791,1487692,0,1.487692,510.0
1792,1488528,0,1.488528,512.0
1793,1489360,0,1.48936,515.0
1794,1490192,0,1.490192,510.0
1795,1491028,0,1.491028,507.0
1796,1491860,0,1.49186,509.0
1797,1492692,0,1.492692,511.0
1798,1493528,0,1.493528,516.0
1799,1494360,0,1.49436,513.0
1800,1495192,0,1.495192,510.0
1801,1496028,0,1.496028,519.0
1802,1496860,0,1.49686,514.0
1803,1497692,0,1.497692,514.0
1804,1498528,0,1.498528,514.0
1805,1499360,0,1.49936,510.0
1806,1500192,0,1.500192,511.0
1807,1501028,0,1.501028,510.0
1808,1501860,0,1.50186,513.0
1809,1502692,0,1.502692,504.0
1810,1503528,0,1.503528,511.0
1811,1504360,0,1.50436,507.0
1812,1505196,0,1.505196,512.0
1813,1506028,0,1.506028,509.0
1814,1506860,0,1.50686,516.0
1815,1507696,0,1.507696,511.0
1816,1508528,0,1.508528,509.0
1817,1509360,0,1.50936,513.0
1818,1510196,0,1.510196,511.0
1819,1511028,0,1.511028,509.0
1820,1511860,0,1.51186,514.0
1821,1512696,0,1.512696,511.0
1822,1513528,0,1.513528,519.0
1823,1514360,0,1.51436,511.0
1824,1515196,0,1.515196,509.0
1825,1516028,0,1.516028,507.0
1826,1516860,0,1.51686,509.0
1827,1517696,0,1.517696,511.0
1828,1518528,0,1.518528,508.0
1829,1519360,0,1.51936,511.0
1830,1520196,0,1.520196,514.0
1831,1521028,0,1.521028,510.0
1832,1521860,0,1.52186,509.0
1833,1522696,0,1.522696,506.0
1834,1523528,0,1.523528,512.0
1835,1524360,0,1.52436,513.0
1836,1525196,0,1.525196,516.0
1837,1526028,0,1.526028,511.0
1838,1526860,0,1.52686,513.0
1839,1527696,0,1.527696,509.0
1840,1528528,0,1.528528,513.0
1841,1529360,0,1.52936,505.0
1842,1530196,0,1.530196,509.0
1843,1531028,0,1.531028,508.0
1844,1531860,0,1.53186,506.0
1845,1532696,0,1.532696,512.0
1846,1533528,0,1.533528,518.0
1847,1534364,0,1.534364,512.0
1848,1535196,0,1.535196,509.0
1849,1536028,0,1.536028,515.0
1850,1536864,0,1.536864,513.0
1851,1537696,0,1.537696,512.0
1852,1538528,0,1.538528,515.0
1853,1539364,0,1.539364,510.0
1854,1540196,0,1.540196,513.0
1855,1541028,0,1.541028,509.0
1856,1541864,0,1.541864,512.0
1857,1542696,0,1.542696,515.0
1858,1543528,0,1.543528,510.0
1859,1544364,0,1.544364,508.0
1860,1545196,0,1.545196,519.0
1861,1546028,0,1.546028,509.0
1862,1546864,0,1.546864,516.0
1863,1547696,0,1.547696,510.0
1864,1548528,0,1.548528,510.0
1865,1549364,0,1.549364,517.0
1866,1550196,0,1.550196,511.0
1867,1551028,0,1.551028,510.0
1868,1551864,0,1.551864,515.0
1869,1552696,0,1.552696,509.0
1870,1553528,0,1.553528,512.0
1871,1554364,0,1.554364,510.0
1872,1555196,0,1.555196,512.0
1873,1556028,0,1.556028,515.0
1874,1556864,0,1.556864,507.0
1875,1557696,0,1.557696,508.0
1876,1558536,0,1.558536,504.0
1877,1559364,0,1.559364,512.0
1878,1560196,0,1.560196,516.0
1879,1561032,0,1.561032,510.0
1880,1561864,0,1.561864,510.0
1881,1562696,0,1.562696,513.0
1882,1563532,0,1.563532,513.0
1883,1564364,0,1.564364,512.0
1884,1565196,0,1.565196,517.0
1885,1566032,0,1.566032,507.0
1886,1566864,0,1.566864,512.0
1887,1567696,0,1.567696,511.0
1888,1568532,0,1.568532,512.0
1889,1569364,0,1.569364,500.0
1890,1570196,0,1.570196,509.0
1891,1571032,0,1.571032,506.0
1892,1571864,0,1.571864,509.0
1893,1572696,0,1.572696,513.0
1894,1573532,0,1.573532,518.0
1895,1574364,0,1.574364,510.0
1896,1575196,0,1.575196,508.0
1897,1576032,0,1.576032,502.0
1898,1576864,0,1.576864,511.0
1899,1577696,0,1.577696,513.0
1900,1578532,0,1.578532,510.0
1901,1579364,0,1.579364,509.0
1902,1580196,0,1.580196,510.0
1903,1581032,0,1.581032,506.0
1904,1581864,0,1.581864,515.0
1905,1582696,0,1.582696,521.0
1906,1583532,0,1.583532,510.0
1907,1584364,0,1.584364,510.0
1908,1585196,0,1.585196,518.0
1909,1586032,0,1.586032,507.0
1910,1586864,0,1.586864,520.0
1911,1587700,0,1.5877,510.0
1912,1588532,0,1.588532,510.0
1913,1589364,0,1.589364,513.0
1914,1590200,0,1.5902,511.0
1915,1591032,0,1.591032,508.0
1916,1591864,0,1.591864,507.0
1917,1592700,0,1.5927,510.0
1918,1593532,0,1.593532,513.0
1919,1594364,0,1.594364,509.0
1920,1595200,0,1.5952,512.0
1921,1596032,0,1.596032,501.0
1922,1596864,0,1.596864,512.0
1923,1597700,0,1.5977,511.0
1924,1598532,0,1.598532,496.0
1925,1599364,0,1.599364,512.0
1926,1600200,0,1.6002,517.0
1927,1601032,0,1.601032,511.0
1928,1601864,0,1.601864,512.0
1929,1602700,0,1.6027,515.0
1930,1603532,0,1.603532,514.0
1931,1604364,0,1.604364,515.0
1932,1605200,0,1.6052,506.0
1933,1606032,0,1.606032,510.0
1934,1606864,0,1.606864,514.0
1935,1607700,0,1.6077,510.0
1936,1608532,0,1.608532,513.0
1937,1609364,0,1.609364,500.0
1938,1610200,0,1.6102,509.0
1939,1611032,0,1.611032,514.0
1940,1611868,0,1.611868,505.0
1941,1612700,0,1.6127,513.0
1942,1613532,0,1.613532,516.0
1943,1614368,0,1.614368,510.0
1944,1615200,0,1.6152,509.0
1945,1616032,0,1.616032,504.0
1946,1616868,0,1.616868,513.0
1947,1617700,0,1.6177,514.0
1948,1618532,0,1.618532,519.0
1949,1619368,0,1.619368,511.0
1950,1620200,0,1.6202,517.0
1951,1621032,0,1.621032,511.0
1952,1621868,0,1.621868,512.0
1953,1622700,0,1.6227,517.0
1954,1623532,0,1.623532,509.0
1955,1624368,0,1.624368,507.0
1956,1625200,0,1.6252,514.0
1957,1626032,0,1.626032,513.0
1958,1626868,0,1.626868,516.0
1959,1627700,0,1.6277,511.0
1960,1628532,0,1.628532,514.0
1961,1629368,0,1.629368,505.0
1962,1630200,0,1.6302,513.0
1963,1631032,0,1.631032,516.0
1964,1631868,0,1.631868,512.0
1965,1632700,0,1.6327,512.0
1966,1633532,0,1.633532,517.0
1967,1634368,0,1.634368,509.0
1968,1635200,0,1.6352,509.0
1969,1636032,0,1.636032,507.0
1970,1636868,0,1.636868,509.0
1971,1637700,0,1.6377,510.0
1972,1638532,0,1.638532,508.0
1973,1639368,0,1.639368,512.0
1974,1640200,0,1.6402,522.0
1975,1641036,0,1.641036,508.0
1976,1641868,0,1.641868,511.0
1977,1642700,0,1.6427,505.0
1978,1643536,0,1.643536,513.0
1979,1644368,0,1.644368,514.0
1980,1645200,0,1.6452,514.0
1981,1646036,0,1.646036,512.0
1982,1646868,0,1.646868,515.0
1983,1647700,0,1.6477,511.0
1984,1648536,0,1.648536,514.0
1985,1649368,0,1.649368,508.0
1986,1650200,0,1.6502,510.0
1987,1651036,0,1.651036,514.0
1988,1651868,0,1.651868,516.0
1989,1652700,0,1.6527,516.0
1990,1653536,0,1.653536,517.0
1991,1654368,0,1.654368,510.0
1992,1655200,0,1.6552,510.0
1993,1656036,0,1.656036,517.0
1994,1656868,0,1.656868,513.0
1995,1657700,0,1.6577,514.0
1996,1658536,0,1.658536,511.0
1997,1659368,0,1.659368,510.0
1998,1660200,0,1.6602,524.0
1999,1661036,0,1.661036,507.0
2000,1661868,0,1.661868,508.0
2001,1662700,0,1.6627,498.0
2002,1663536,0,1.663536,508.0
2003,1664368,0,1.664368,511.0
2004,1665204,0,1.665204,514.0
2005,1666036,0,1.666036,515.0
2006,1666868,0,1.666868,519.0
2007,1667704,0,1.667704,511.0
2008,1668536,0,1.668536,513.0
2009,1669368,0,1.669368,510.0
2010,1670204,0,1.670204,512.0
2011,1671036,0,1.671036,512.0
2012,1671868,0,1.671868,513.0
2013,1672704,0,1.672704,511.0
2014,1673536,0,1.673536,513.0
2015,1674368,0,1.674368,509.0
2016,1675204,0,1.675204,511.0
2017,1676036,0,1.676036,498.0
2018,1676868,0,1.676868,510.0
2019,1677704,0,1.677704,513.0
2020,1678536,0,1.678536,514.0
2021,1679368,0,1.679368,510.0
2022,1680204,0,1.680204,528.0
2023,1681036,0,1.681036,509.0
2024,1681868,0,1.681868,511.0
2025,1682704,0,1.682704,511.0
2026,1683536,0,1.683536,515.0
2027,1684368,0,1.684368,516.0
2028,1685204,0,1.685204,515.0
2029,1686036,0,1.686036,512.0
2030,1686868,0,1.686868,518.0
2031,1687704,0,1.687704,511.0
2032,1688536,0,1.688536,512.0
2033,1689368,0,1.689368,510.0
2034,1690204,0,1.690204,507.0
2035,1691036,0,1.691036,511.0
2036,1691868,0,1.691868,507.0
2037,1692704,0,1.692704,510.0
2038,1693536,0,1.693536,516.0
2039,1694372,0,1.694372,508.0
2040,1695204,0,1.695204,509.0
2041,1696036,0,1.696036,512.0
2042,1696872,0,1.696872,513.0
2043,1697704,0,1.697704,514.0
2044,1698536,0,1.698536,507.0
2045,1699372,0,1.699372,511.0
2046,1700204,0,1.700204,522.0
2047,1701036,0,1.701036,515.0
2048,1701872,0,1.701872,515.0
2049,1702704,0,1.702704,513.0
2050,1703536,0,1.703536,509.0
2051,1704372,0,1.704372,509.0
2052,1705204,0,1.705204,509.0
2053,1706036,0,1.706036,514.0
2054,1706872,0,1.706872,517.0
2055,1707704,0,1.707704,509.0
2056,1708536,0,1.708536,510.0
2057,1709372,0,1.709372,508.0
2058,1710204,0,1.710204,511.0
2059,1711036,0,1.711036,512.0
2060,1711872,0,1.711872,498.0
2061,1712704,0,1.712704,510.0
2062,1713536,0,1.713536,515.0
2063,1714372,0,1.714372,513.0
2064,1715208,0,1.715208,511.0
2065,1716036,0,1.716036,513.0
2066,1716872,0,1.716872,512.0
2067,1717704,0,1.717704,513.0
2068,1718536,0,1.718536,513.0
2069,1719372,0,1.719372,514.0
2070,1720204,0,1.720204,523.0
2071,1721040,0,1.72104,511.0
2072,1721872,0,1.721872,509.0
2073,1722704,0,1.722704,502.0
2074,1723540,0,1.72354,511.0
2075,1724372,0,1.724372,510.0
2076,1725204,0,1.725204,504.0
2077,1726040,0,1.72604,510.0
2078,1726872,0,1.726872,514.0
2079,1727704,0,1.727704,511.0
2080,1728540,0,1.72854,513.0
2081,1729372,0,1.729372,511.0
2082,1730204,0,1.730204,509.0
2083,1731040,0,1.73104,512.0
2084,1731872,0,1.731872,513.0
2085,1732704,0,1.732704,513.0
2086,1733540,0,1.73354,518.0
2087,1734372,0,1.734372,509.0
2088,1735204,0,1.735204,508.0
2089,1736040,0,1.73604,506.0
2090,1736872,0,1.736872,513.0
2091,1737704,0,1.737704,514.0
2092,1738540,0,1.73854,512.0
2093,1739372,0,1.739372,512.0
2094,1740204,0,1.740204,522.0
2095,1741040,0,1.74104,514.0
2096,1741872,0,1.741872,513.0
2097,1742704,0,1.742704,501.0
2098,1743540,0,1.74354,509.0
2099,1744372,0,1.744372,512.0
2100,1745204,0,1.745204,513.0
2101,1746040,0,1.74604,513.0
2102,1746872,0,1.746872,519.0
2103,1747708,0,1.747708,511.0
2104,1748540,0,1.74854,511.0
2105,1749372,0,1.749372,513.0
2106,1750208,0,1.750208,512.0
2107,1751040,0,1.75104,511.0
2108,1751872,0,1.751872,504.0
2109,1752708,0,1.752708,512.0
2110,1753540,0,1.75354,513.0
2111,1754372,0,1.754372,511.0
2112,1755208,0,1.755208,513.0
2113,1756040,0,1.75604,502.0
2114,1756872,0,1.756872,511.0
2115,1757708,0,1.757708,513.0
2116,1758540,0,1.75854,507.0
2117,1759372,0,1.759372,513.0
2118,1760208,0,1.760208,524.0
2119,1761040,0,1.76104,510.0
2120,1761872,0,1.761872,511.0
2121,1762708,0,1.762708,507.0
2122,1763540,0,1.76354,512.0
2123,1764372,0,1.764372,508.0
2124,1765208,0,1.765208,503.0
2125,1766040,0,1.76604,511.0
2126,1766872,0,1.766872,514.0
2127,1767708,0,1.767708,506.0
2128,1768540,0,1.76854,516.0
2129,1769372,0,1.769372,515.0
2130,1770208,0,1.770208,509.0
2131,1771040,0,1.77104,512.0
2132,1771876,0,1.771876,510.0
2133,1772708,0,1.772708,514.0
2134,1773540,0,1.77354,518.0
2135,1774376,0,1.774376,510.0
2136,1775208,0,1.775208,507.0
2137,1776040,0,1.77604,503.0
2138,1776876,0,1.776876,513.0
2139,1777708,0,1.777708,514.0
2140,1778540,0,1.77854,511.0
2141,1779376,0,1.779376,511.0
2142,1780208,0,1.780208,514.0
2143,1781040,0,1.78104,511.0
2144,1781876,0,1.781876,512.0
2145,1782708,0,1.782708,515.0
2146,1783540,0,1.78354,510.0
2147,1784376,0,1.784376,509.0
2148,1785208,0,1.785208,512.0
2149,1786040,0,1.78604,510.0
2150,1786876,0,1.786876,516.0
2151,1787708,0,1.787708,509.0
2152,1788540,0,1.78854,510.0
2153,1789376,0,1.789376,513.0
2154,1790208,0,1.790208,509.0
2155,1791040,0,1.79104,509.0
2156,1791876,0,1.791876,508.0
2157,1792708,0,1.792708,510.0
2158,1793540,0,1.79354,515.0
2159,1794376,0,1.794376,513.0
2160,1795208,0,1.795208,509.0
2161,1796040,0,1.79604,505.0
2162,1796876,0,1.796876,511.0
2163,1797708,0,1.797708,511.0
2164,1798540,0,1.79854,510.0
2165,1799376,0,1.799376,511.0
2166,1800208,0,1.800208,512.0
2167,1801044,0,1.801044,510.0
2168,1801876,0,1.801876,512.0
2169,1802708,0,1.802708,514.0
2170,1803544,0,1.803544,513.0
2171,1804376,0,1.804376,508.0
2172,1805208,0,1.805208,508.0
2173,1806044,0,1.806044,511.0
2174,1806876,0,1.806876,515.0
2175,1807708,0,1.807708,513.0
2176,1808544,0,1.808544,513.0
2177,1809376,0,1.809376,508.0
2178,1810208,0,1.810208,514.0
2179,1811044,0,1.811044,514.0
2180,1811876,0,1.811876,490.0
2181,1812708,0,1.812708,511.0
2182,1813544,0,1.813544,513.0
2183,1814376,0,1.814376,509.0
2184,1815208,0,1.815208,513.0
2185,1816044,0,1.816044,506.0
2186,1816876,0,1.816876,513.0
2187,1817708,0,1.817708,515.0
2188,1818544,0,1.818544,515.0
2189,1819376,0,1.819376,514.0
2190,1820208,0,1.820208,520.0
2191,1821044,0,1.821044,516.0
2192,1821876,0,1.821876,515.0
2193,1822708,0,1.822708,513.0
2194,1823544,0,1.823544,511.0
2195,1824376,0,1.824376,509.0
2196,1825208,0,1.825208,505.0
2197,1826044,0,1.826044,509.0
2198,1826876,0,1.826876,518.0
2199,1827712,0,1.827712,509.0
2200,1828544,0,1.828544,509.0
2201,1829376,0,1.829376,508.0
2202,1830212,0,1.830212,508.0
2203,1831044,0,1.831044,509.0
2204,1831876,0,1.831876,509.0
2205,1832712,0,1.832712,512.0
2206,1833544,0,1.833544,515.0
2207,1834376,0,1.834376,513.0
2208,1835212,0,1.835212,511.0
2209,1836044,0,1.836044,512.0
2210,1836876,0,1.836876,510.0
2211,1837712,0,1.837712,511.0
2212,1838544,0,1.838544,509.0
2213,1839376,0,1.839376,512.0
2214,1840212,0,1.840212,512.0
2215,1841044,0,1.841044,511.0
2216,1841876,0,1.841876,512.0
2217,1842712,0,1.842712,504.0
2218,1843544,0,1.843544,511.0
2219,1844376,0,1.844376,508.0
2220,1845212,0,1.845212,499.0
2221,1846044,0,1.846044,509.0
2222,1846876,0,1.846876,515.0
2223,1847712,0,1.847712,514.0
2224,1848544,0,1.848544,511.0
2225,1849376,0,1.849376,519.0
2226,1850212,0,1.850212,511.0
2227,1851044,0,1.851044,513.0
2228,1851876,0,1.851876,512.0
2229,1852712,0,1.852712,513.0
2230,1853544,0,1.853544,515.0
2231,1854380,0,1.85438,508.0
2232,1855212,0,1.855212,511.0
2233,1856044,0,1.856044,513.0
2234,1856880,0,1.85688,511.0
2235,1857712,0,1.857712,508.0
2236,1858544,0,1.858544,512.0
2237,1859380,0,1.85938,508.0
2238,1860212,0,1.860212,514.0
2239,1861044,0,1.861044,510.0
2240,1861880,0,1.86188,510.0
2241,1862712,0,1.862712,512.0
2242,1863544,0,1.863544,511.0
2243,1864380,0,1.86438,510.0
2244,1865212,0,1.865212,512.0
2245,1866044,0,1.866044,509.0
2246,1866880,0,1.86688,520.0
2247,1867712,0,1.867712,511.0
2248,1868544,0,1.868544,511.0
2249,1869380,0,1.86938,523.0
2250,1870212,0,1.870212,511.0
2251,1871044,0,1.871044,508.0
2252,1871880,0,1.87188,498.0
2253,1872712,0,1.872712,511.0
2254,1873544,0,1.873544,516.0
2255,1874380,0,1.87438,510.0
2256,1875212,0,1.875212,509.0
2257,1876044,0,1.876044,518.0
2258,1876880,0,1.87688,511.0
2259,1877712,0,1.877712,510.0
2260,1878544,0,1.878544,507.0
2261,1879380,0,1.87938,505.0
2262,1880212,0,1.880212,511.0
2263,1881048,0,1.881048,510.0
2264,1881880,0,1.88188,512.0
2265,1882712,0,1.882712,521.0
2266,1883548,0,1.883548,513.0
2267,1884380,0,1.88438,508.0
2268,1885212,0,1.885212,517.0
2269,1886048,0,1.886048,512.0
2270,1886880,0,1.88688,515.0
2271,1887712,0,1.887712,512.0
2272,1888548,0,1.888548,507.0
2273,1889380,0,1.88938,521.0
2274,1890212,0,1.890212,512.0
2275,1891048,0,1.891048,511.0
2276,1891880,0,1.89188,510.0
2277,1892712,0,1.892712,510.0
2278,1893548,0,1.893548,510.0
2279,1894380,0,1.89438,506.0
2280,1895212,0,1.895212,510.0
2281,1896048,0,1.896048,508.0
2282,1896880,0,1.89688,512.0
2283,1897712,0,1.897712,509.0
2284,1898548,0,1.898548,513.0
2285,1899380,0,1.89938,511.0
2286,1900212,0,1.900212,514.0
2287,1901048,0,1.901048,513.0
2288,1901880,0,1.90188,511.0
2289,1902712,0,1.902712,510.0
2290,1903548,0,1.903548,511.0
2291,1904380,0,1.90438,509.0
2292,1905212,0,1.905212,510.0
2293,1906048,0,1.906048,509.0
2294,1906880,0,1.90688,512.0
2295,1907720,0,1.90772,510.0
2296,1908548,0,1.908548,512.0
2297,1909380,0,1.90938,515.0
2298,1910216,0,1.910216,513.0
2299,1911048,0,1.911048,510.0
2300,1911880,0,1.91188,504.0
2301,1912716,0,1.912716,509.0
2302,1913548,0,1.913548,514.0
2303,1914380,0,1.91438,507.0
2304,1915216,0,1.915216,509.0
2305,1916048,0,1.916048,519.0
2306,1916880,0,1.91688,513.0
2307,1917716,0,1.917716,513.0
2308,1918548,0,1.918548,520.0
2309,1919380,0,1.91938,508.0
2310,1920216,0,1.920216,516.0
2311,1921048,0,1.921048,509.0
2312,1921880,0,1.92188,512.0
2313,1922716,0,1.922716,521.0
2314,1923548,0,1.923548,510.0
2315,1924380,0,1.92438,506.0
2316,1925216,0,1.925216,507.0
2317,1926048,0,1.926048,509.0
2318,1926880,0,1.92688,515.0
2319,1927716,0,1.927716,511.0
2320,1928548,0,1.928548,505.0
2321,1929380,0,1.92938,514.0
2322,1930216,0,1.930216,512.0
2323,1931048,0,1.931048,513.0
2324,1931884,0,1.931884,493.0
2325,1932716,0,1.932716,510.0
2326,1933548,0,1.933548,515.0
2327,1934384,0,1.934384,512.0
2328,1935216,0,1.935216,516.0
2329,1936048,0,1.936048,507.0
2330,1936884,0,1.936884,512.0
2331,1937716,0,1.937716,512.0
2332,1938548,0,1.938548,498.0
2333,1939384,0,1.939384,511.0
2334,1940216,0,1.940216,519.0
2335,1941048,0,1.941048,513.0
2336,1941884,0,1.941884,512.0
2337,1942716,0,1.942716,511.0
2338,1943548,0,1.943548,513.0
2339,1944384,0,1.944384,511.0
2340,1945216,0,1.945216,503.0
2341,1946048,0,1.946048,509.0
2342,1946884,0,1.946884,515.0
2343,1947716,0,1.947716,513.0
2344,1948548,0,1.948548,513.0
2345,1949384,0,1.949384,512.0
2346,1950216,0,1.950216,510.0
2347,1951048,0,1.951048,510.0
2348,1951884,0,1.951884,511.0
2349,1952716,0,1.952716,509.0
2350,1953548,0,1.953548,513.0
2351,1954384,0,1.954384,510.0
2352,1955216,0,1.955216,509.0
2353,1956048,0,1.956048,517.0
2354,1956884,0,1.956884,513.0
2355,1957716,0,1.957716,516.0
2356,1958548,0,1.958548,517.0
2357,1959384,0,1.959384,510.0
2358,1960216,0,1.960216,510.0
2359,1961052,0,1.961052,509.0
2360,1961884,0,1.961884,511.0
2361,1962716,0,1.962716,509.0
2362,1963552,0,1.963552,506.0
2363,1964384,0,1.964384,506.0
2364,1965216,0,1.965216,509.0
2365,1966052,0,1.966052,512.0
2366,1966884,0,1.966884,515.0
2367,1967716,0,1.967716,514.0
2368,1968552,0,1.968552,508.0
2369,1969384,0,1.969384,504.0
2370,1970216,0,1.970216,510.0
2371,1971052,0,1.971052,509.0
2372,1971884,0,1.971884,489.0
2373,1972716,0,1.972716,505.0
2374,1973552,0,1.973552,513.0
2375,1974384,0,1.974384,511.0
2376,1975216,0,1.975216,515.0
2377,1976052,0,1.976052,517.0
2378,1976884,0,1.976884,513.0
2379,1977716,0,1.977716,510.0
2380,1978552,0,1.978552,509.0
2381,1979384,0,1.979384,503.0
2382,1980216,0,1.980216,515.0
2383,1981052,0,1.981052,509.0
2384,1981884,0,1.981884,510.0
2385,1982716,0,1.982716,517.0
2386,1983552,0,1.983552,514.0
2387,1984384,0,1.984384,509.0
2388,1985216,0,1.985216,514.0
2389,1986052,0,1.986052,508.0
2390,1986884,0,1.986884,512.0
2391,1987720,0,1.98772,510.0
2392,1988552,0,1.988552,509.0
2393,1989384,0,1.989384,515.0
2394,1990220,0,1.99022,509.0
2395,1991052,0,1.991052,510.0
2396,1991884,0,1.991884,508.0
2397,1992720,0,1.99272,512.0
2398,1993552,0,1.993552,514.0
2399,1994384,0,1.994384,506.0
2400,1995220,0,1.99522,508.0
2401,1996052,0,1.996052,507.0
2402,1996884,0,1.996884,511.0
2403,1997720,0,1.99772,512.0
2404,1998552,0,1.998552,512.0
2405,1999384,0,1.999384,508.0
2406,2000220,0,2.00022,513.0
2407,2001052,0,2.001052,510.0
2408,2001884,0,2.001884,511.0
2409,2002720,0,2.00272,510.0
2410,2003552,0,2.003552,506.0
2411,2004384,0,2.004384,509.0
2412,2005220,0,2.00522,514.0
2413,2006052,0,2.006052,513.0
2414,2006884,0,2.006884,516.0
2415,2007720,0,2.00772,510.0
2416,2008552,0,2.008552,508.0
2417,2009384,0,2.009384,509.0
2418,2010220,0,2.01022,511.0
2419,2011052,0,2.011052,513.0
2420,2011884,0,2.011884,498.0
2421,2012720,0,2.01272,508.0
2422,2013552,0,2.013552,520.0
2423,2014388,0,2.014388,511.0
2424,2015220,0,2.01522,514.0
2425,2016052,0,2.016052,510.0
2426,2016888,0,2.016888,508.0
2427,2017720,0,2.01772,509.0
2428,2018552,0,2.018552,516.0
2429,2019388,0,2.019388,513.0
2430,2020220,0,2.02022,517.0
2431,2021052,0,2.021052,513.0
2432,2021888,0,2.021888,509.0
2433,2022720,0,2.02272,513.0
2434,2023552,0,2.023552,511.0
2435,2024388,0,2.024388,512.0
2436,2025220,0,2.02522,503.0
2437,2026052,0,2.026052,510.0
2438,2026888,0,2.026888,513.0
2439,2027720,0,2.02772,510.0
2440,2028552,0,2.028552,511.0
2441,2029388,0,2.029388,508.0
2442,2030220,0,2.03022,509.0
2443,2031052,0,2.031052,512.0
2444,2031888,0,2.031888,510.0
2445,2032720,0,2.03272,515.0
2446,2033552,0,2.033552,524.0
2447,2034388,0,2.034388,508.0
2448,2035220,0,2.03522,511.0
2449,2036052,0,2.036052,514.0
2450,2036888,0,2.036888,512.0
2451,2037720,0,2.03772,512.0
2452,2038552,0,2.038552,514.0
2453,2039388,0,2.039388,513.0
2454,2040220,0,2.04022,511.0
2455,2041056,0,2.041056,510.0
2456,2041888,0,2.041888,512.0
2457,2042720,0,2.04272,510.0
2458,2043556,0,2.043556,506.0
2459,2044388,0,2.044388,510.0
2460,2045220,0,2.04522,499.0
2461,2046056,0,2.046056,513.0
2462,2046888,0,2.046888,518.0
2463,2047720,0,2.04772,510.0
2464,2048556,0,2.048556,509.0
2465,2049388,0,2.049388,516.0
2466,2050220,0,2.05022,514.0
2467,2051056,0,2.051056,513.0
2468,2051888,0,2.051888,496.0
2469,2052720,0,2.05272,510.0
2470,2053556,0,2.053556,527.0
2471,2054388,0,2.054388,515.0
2472,2055220,0,2.05522,515.0
2473,2056056,0,2.056056,516.0
2474,2056888,0,2.056888,509.0
2475,2057720,0,2.05772,513.0
2476,2058556,0,2.058556,513.0
2477,2059388,0,2.059388,512.0
2478,2060220,0,2.06022,515.0
2479,2061056,0,2.061056,510.0
2480,2061888,0,2.061888,509.0
2481,2062720,0,2.06272,507.0
2482,2063556,0,2.063556,508.0
2483,2064392,0,2.064392,513.0
2484,2065224,0,2.065224,512.0
2485,2066056,0,2.066056,508.0
2486,2066888,0,2.066888,512.0
2487,2067724,0,2.067724,511.0
2488,2068556,0,2.068556,511.0
2489,2069388,0,2.069388,511.0
2490,2070224,0,2.070224,507.0
2491,2071056,0,2.071056,508.0
2492,2071888,0,2.071888,508.0
2493,2072724,0,2.072724,513.0
2494,2073556,0,2.073556,528.0
2495,2074388,0,2.074388,510.0
2496,2075224,0,2.075224,509.0
2497,2076056,0,2.076056,507.0
2498,2076888,0,2.076888,511.0
2499,2077724,0,2.077724,511.0
2500,2078556,0,2.078556,509.0
2501,2079388,0,2.079388,511.0
2502,2080224,0,2.080224,513.0
2503,2081056,0,2.081056,512.0
2504,2081888,0,2.081888,512.0
2505,2082724,0,2.082724,515.0
2506,2083556,0,2.083556,508.0
2507,2084388,0,2.084388,512.0
2508,2085224,0,2.085224,514.0
2509,2086056,0,2.086056,512.0
2510,2086888,0,2.086888,516.0
2511,2087724,0,2.087724,505.0
2512,2088556,0,2.088556,507.0
2513,2089388,0,2.089388,509.0
2514,2090224,0,2.090224,513.0
2515,2091056,0,2.091056,513.0
2516,2091892,0,2.091892,508.0
2517,2092724,0,2.092724,509.0
2518,2093556,0,2.093556,522.0
2519,2094392,0,2.094392,513.0
2520,2095224,0,2.095224,513.0
2521,2096056,0,2.096056,512.0
2522,2096892,0,2.096892,509.0
2523,2097724,0,2.097724,512.0
2524,2098556,0,2.098556,515.0
2525,2099392,0,2.099392,513.0
2526,2100224,0,2.100224,515.0
2527,2101056,0,2.101056,509.0
2528,2101892,0,2.101892,509.0
2529,2102724,0,2.102724,513.0
2530,2103556,0,2.103556,510.0
2531,2104392,0,2.104392,510.0
2532,2105224,0,2.105224,491.0
2533,2106056,0,2.106056,511.0
2534,2106892,0,2.106892,516.0
2535,2107724,0,2.107724,512.0
2536,2108556,0,2.108556,510.0
2537,2109392,0,2.109392,513.0
2538,2110224,0,2.110224,510.0
2539,2111056,0,2.111056,510.0
2540,2111892,0,2.111892,513.0
2541,2112724,0,2.112724,511.0
2542,2113556,0,2.113556,524.0
2543,2114392,0,2.114392,511.0
2544,2115224,0,2.115224,508.0
2545,2116056,0,2.116056,512.0
2546,2116892,0,2.116892,511.0
2547,2117724,0,2.117724,511.0
2548,2118556,0,2.118556,510.0
2549,2119392,0,2.119392,510.0
2550,2120224,0,2.120224,514.0
2551,2121060,0,2.12106,510.0
2552,2121892,0,2.121892,511.0
2553,2122724,0,2.122724,519.0
2554,2123560,0,2.12356,511.0
2555,2124392,0,2.124392,510.0
2556,2125224,0,2.125224,499.0
2557,2126060,0,2.12606,510.0
2558,2126892,0,2.126892,516.0
2559,2127724,0,2.127724,508.0
2560,2128560,0,2.12856,509.0
2561,2129392,0,2.129392,509.0
2562,2130224,0,2.130224,514.0
2563,2131060,0,2.13106,516.0
2564,2131892,0,2.131892,508.0
2565,2132724,0,2.132724,509.0
2566,2133560,0,2.13356,523.0
2567,2134392,0,2.134392,513.0
2568,2135224,0,2.135224,512.0
2569,2136060,0,2.13606,509.0
2570,2136892,0,2.136892,508.0
2571,2137724,0,2.137724,508.0
2572,2138560,0,2.13856,508.0
2573,2139392,0,2.139392,512.0
2574,2140224,0,2.140224,517.0
2575,2141060,0,2.14106,509.0
2576,2141892,0,2.141892,509.0
2577,2142724,0,2.142724,506.0
2578,2143560,0,2.14356,510.0
2579,2144392,0,2.144392,510.0
2580,2145228,0,2.145228,510.0
2581,2146060,0,2.14606,509.0
2582,2146892,0,2.146892,515.0
2583,2147728,0,2.147728,512.0
2584,2148560,0,2.14856,510.0
2585,2149392,0,2.149392,517.0
2586,2150228,0,2.150228,509.0
2587,2151060,0,2.15106,510.0
2588,2151892,0,2.151892,514.0
2589,2152728,0,2.152728,513.0
2590,2153560,0,2.15356,526.0
2591,2154392,0,2.154392,512.0
2592,2155228,0,2.155228,511.0
2593,2156060,0,2.15606,511.0
2594,2156892,0,2.156892,509.0
2595,2157728,0,2.157728,508.0
2596,2158560,0,2.15856,504.0
2597,2159392,0,2.159392,510.0
2598,2160228,0,2.160228,513.0
2599,2161060,0,2.16106,513.0
2600,2161892,0,2.161892,515.0
2601,2162728,0,2.162728,513.0
2602,2163560,0,2.16356,507.0
2603,2164392,0,2.164392,511.0
2604,2165228,0,2.165228,509.0
2605,2166060,0,2.16606,512.0
2606,2166892,0,2.166892,515.0
2607,2167728,0,2.167728,508.0
2608,2168560,0,2.16856,507.0
2609,2169392,0,2.169392,504.0
2610,2170228,0,2.170228,512.0
2611,2171060,0,2.17106,512.0
2612,2171892,0,2.171892,498.0
2613,2172728,0,2.172728,511.0
2614,2173560,0,2.17356,519.0
2615,2174396,0,2.174396,514.0
2616,2175228,0,2.175228,514.0
2617,2176060,0,2.17606,512.0
2618,2176896,0,2.176896,511.0
2619,2177728,0,2.177728,508.0
2620,2178560,0,2.17856,490.0
2621,2179396,0,2.179396,510.0
2622,2180228,0,2.180228,519.0
2623,2181060,0,2.18106,513.0
2624,2181896,0,2.181896,512.0
2625,2182728,0,2.182728,514.0
2626,2183560,0,2.18356,507.0
2627,2184396,0,2.184396,509.0
2628,2185228,0,2.185228,516.0
2629,2186060,0,2.18606,512.0
2630,2186896,0,2.186896,516.0
2631,2187728,0,2.187728,515.0
2632,2188560,0,2.18856,509.0
2633,2189396,0,2.189396,498.0
2634,2190228,0,2.190228,506.0
2635,2191060,0,2.19106,509.0
2636,2191896,0,2.191896,490.0
2637,2192728,0,2.192728,511.0
2638,2193560,0,2.19356,525.0
2639,2194396,0,2.194396,515.0
2640,2195228,0,2.195228,511.0
2641,2196060,0,2.19606,507.0
2642,2196896,0,2.196896,511.0
2643,2197728,0,2.197728,509.0
2644,2198560,0,2.19856,517.0
2645,2199396,0,2.199396,511.0
2646,2200228,0,2.200228,513.0
2647,2201064,0,2.201064,510.0
2648,2201896,0,2.201896,512.0
2649,2202728,0,2.202728,508.0
2650,2203564,0,2.203564,509.0
2651,2204396,0,2.204396,512.0
2652,2205228,0,2.205228,516.0
2653,2206064,0,2.206064,515.0
2654,2206896,0,2.206896,519.0
2655,2207728,0,2.207728,509.0
2656,2208564,0,2.208564,514.0
2657,2209396,0,2.209396,505.0
2658,2210228,0,2.210228,514.0
2659,2211064,0,2.211064,513.0
2660,2211896,0,2.211896,509.0
2661,2212728,0,2.212728,507.0
2662,2213564,0,2.213564,516.0
2663,2214396,0,2.214396,514.0
2664,2215228,0,2.215228,512.0
2665,2216064,0,2.216064,509.0
2666,2216896,0,2.216896,510.0
2667,2217728,0,2.217728,510.0
2668,2218564,0,2.218564,505.0
2669,2219396,0,2.219396,510.0
2670,2220228,0,2.220228,518.0
2671,2221064,0,2.221064,510.0
2672,2221896,0,2.221896,511.0
2673,2222728,0,2.222728,521.0
2674,2223564,0,2.223564,512.0
2675,2224396,0,2.224396,507.0
2676,2225232,0,2.225232,506.0
2677,2226064,0,2.226064,511.0
2678,2226896,0,2.226896,515.0
2679,2227732,0,2.227732,511.0
2680,2228564,0,2.228564,509.0
2681,2229396,0,2.229396,511.0
2682,2230232,0,2.230232,510.0
2683,2231064,0,2.231064,511.0
2684,2231896,0,2.231896,511.0
2685,2232732,0,2.232732,512.0
2686,2233564,0,2.233564,515.0
2687,2234396,0,2.234396,513.0
2688,2235232,0,2.235232,513.0
2689,2236064,0,2.236064,503.0
2690,2236896,0,2.236896,513.0
2691,2237732,0,2.237732,508.0
2692,2238564,0,2.238564,497.0
2693,2239396,0,2.239396,509.0
2694,2240232,0,2.240232,514.0
2695,2241064,0,2.241064,512.0
2696,2241896,0,2.241896,510.0
2697,2242732,0,2.242732,507.0
2698,2243564,0,2.243564,513.0
2699,2244396,0,2.244396,512.0
2700,2245232,0,2.245232,509.0
2701,2246064,0,2.246064,512.0
2702,2246896,0,2.246896,518.0
2703,2247732,0,2.247732,510.0
2704,2248564,0,2.248564,512.0
2705,2249396,0,2.249396,514.0
2706,2250232,0,2.250232,513.0
2707,2251064,0,2.251064,509.0
2708,2251896,0,2.251896,511.0
2709,2252732,0,2.252732,510.0
2710,2253564,0,2.253564,514.0
2711,2254400,0,2.2544,511.0
2712,2255232,0,2.255232,513.0
2713,2256064,0,2.256064,516.0
2714,2256904,0,2.256904,507.0
2715,2257732,0,2.257732,507.0
2716,2258564,0,2.258564,499.0
2717,2259400,0,2.2594,508.0
2718,2260232,0,2.260232,517.0
2719,2261064,0,2.261064,509.0
2720,2261900,0,2.2619,509.0
2721,2262732,0,2.262732,510.0
2722,2263564,0,2.263564,513.0
2723,2264400,0,2.2644,512.0
2724,2265232,0,2.265232,509.0
2725,2266064,0,2.266064,511.0
2726,2266900,0,2.2669,515.0
2727,2267732,0,2.267732,511.0
2728,2268564,0,2.268564,511.0
2729,2269400,0,2.2694,502.0
2730,2270232,0,2.270232,511.0
2731,2271064,0,2.271064,512.0
2732,2271900,0,2.2719,499.0
2733,2272732,0,2.272732,509.0
2734,2273564,0,2.273564,514.0
2735,2274400,0,2.2744,511.0
2736,2275232,0,2.275232,512.0
2737,2276064,0,2.276064,503.0
2738,2276900,0,2.2769,513.0
2739,2277732,0,2.277732,509.0
2740,2278564,0,2.278564,509.0
2741,2279400,0,2.2794,513.0
2742,2280232,0,2.280232,516.0
2743,2281068,0,2.281068,513.0
2744,2281900,0,2.2819,509.0
2745,2282732,0,2.282732,508.0
2746,2283568,0,2.283568,512.0
2747,2284400,0,2.2844,513.0
2748,2285232,0,2.285232,515.0
2749,2286068,0,2.286068,510.0
2750,2286900,0,2.2869,511.0
2751,2287732,0,2.287732,510.0
2752,2288568,0,2.288568,513.0
2753,2289400,0,2.2894,515.0
2754,2290232,0,2.290232,516.0
2755,2291068,0,2.291068,510.0
2756,2291900,0,2.2919,509.0
2757,2292732,0,2.292732,511.0
2758,2293568,0,2.293568,515.0
2759,2294400,0,2.2944,514.0
2760,2295232,0,2.295232,513.0
2761,2296068,0,2.296068,500.0
2762,2296900,0,2.2969,509.0
2763,2297732,0,2.297732,510.0
2764,2298568,0,2.298568,507.0
2765,2299400,0,2.2994,512.0
2766,2300232,0,2.300232,520.0
2767,2301068,0,2.301068,510.0
2768,2301900,0,2.3019,512.0
2769,2302732,0,2.302732,521.0
2770,2303568,0,2.303568,512.0
2771,2304400,0,2.3044,509.0
2772,2305232,0,2.305232,507.0
2773,2306068,0,2.306068,511.0
2774,2306900,0,2.3069,514.0
2775,2307736,0,2.307736,510.0
2776,2308568,0,2.308568,509.0
2777,2309400,0,2.3094,509.0
2778,2310236,0,2.310236,512.0
2779,2311068,0,2.311068,513.0
2780,2311900,0,2.3119,497.0
2781,2312736,0,2.312736,500.0
2782,2313568,0,2.313568,521.0
2783,2314400,0,2.3144,516.0
2784,2315236,0,2.315236,516.0
2785,2316068,0,2.316068,517.0
2786,2316900,0,2.3169,514.0
2787,2317736,0,2.317736,510.0
2788,2318568,0,2.318568,514.0
2789,2319400,0,2.3194,513.0
2790,2320236,0,2.320236,515.0
2791,2321068,0,2.321068,512.0
2792,2321900,0,2.3219,508.0
2793,2322736,0,2.322736,515.0
2794,2323568,0,2.323568,511.0
2795,2324400,0,2.3244,511.0
2796,2325236,0,2.325236,512.0
2797,2326068,0,2.326068,511.0
2798,2326900,0,2.3269,511.0
2799,2327736,0,2.327736,511.0
2800,2328568,0,2.328568,512.0
2801,2329400,0,2.3294,504.0
2802,2330236,0,2.330236,514.0
2803,2331068,0,2.331068,510.0
2804,2331900,0,2.3319,500.0
2805,2332736,0,2.332736,507.0
2806,2333568,0,2.333568,516.0
2807,2334404,0,2.334404,512.0
2808,2335236,0,2.335236,512.0
2809,2336068,0,2.336068,503.0
2810,2336904,0,2.336904,510.0
2811,2337736,0,2.337736,510.0
2812,2338568,0,2.338568,508.0
2813,2339404,0,2.339404,511.0
2814,2340236,0,2.340236,514.0
2815,2341068,0,2.341068,510.0
2816,2341904,0,2.341904,514.0
2817,2342736,0,2.342736,516.0
2818,2343568,0,2.343568,512.0
2819,2344404,0,2.344404,511.0
2820,2345236,0,2.345236,501.0
2821,2346068,0,2.346068,510.0
2822,2346904,0,2.346904,514.0
2823,2347736,0,2.347736,511.0
2824,2348568,0,2.348568,509.0
2825,2349404,0,2.349404,501.0
2826,2350236,0,2.350236,512.0
2827,2351068,0,2.351068,515.0
2828,2351904,0,2.351904,523.0
2829,2352736,0,2.352736,507.0
2830,2353568,0,2.353568,518.0
2831,2354404,0,2.354404,509.0
2832,2355236,0,2.355236,510.0
2833,2356068,0,2.356068,514.0
2834,2356904,0,2.356904,507.0
2835,2357736,0,2.357736,505.0
2836,2358568,0,2.358568,507.0
2837,2359404,0,2.359404,512.0
2838,2360236,0,2.360236,514.0
2839,2361072,0,2.361072,511.0
2840,2361904,0,2.361904,509.0
2841,2362736,0,2.362736,504.0
2842,2363572,0,2.363572,513.0
2843,2364404,0,2.364404,513.0
2844,2365236,0,2.365236,506.0
2845,2366072,0,2.366072,510.0
2846,2366904,0,2.366904,519.0
2847,2367736,0,2.367736,508.0
2848,2368572,0,2.368572,515.0
2849,2369404,0,2.369404,512.0
2850,2370236,0,2.370236,511.0
2851,2371072,0,2.371072,506.0
2852,2371904,0,2.371904,515.0
2853,2372736,0,2.372736,503.0
2854,2373572,0,2.373572,514.0
2855,2374404,0,2.374404,512.0
2856,2375236,0,2.375236,510.0
2857,2376072,0,2.376072,512.0
2858,2376904,0,2.376904,509.0
2859,2377736,0,2.377736,507.0
2860,2378572,0,2.378572,498.0
2861,2379404,0,2.379404,508.0
2862,2380236,0,2.380236,517.0
2863,2381072,0,2.381072,509.0
2864,2381904,0,2.381904,510.0
2865,2382736,0,2.382736,509.0
2866,2383572,0,2.383572,509.0
2867,2384404,0,2.384404,511.0
2868,2385240,0,2.38524,512.0
2869,2386072,0,2.386072,511.0
2870,2386904,0,2.386904,515.0
2871,2387740,0,2.38774,507.0
2872,2388572,0,2.388572,509.0
2873,2389404,0,2.389404,518.0
2874,2390240,0,2.39024,512.0
2875,2391072,0,2.391072,512.0
2876,2391904,0,2.391904,517.0
2877,2392740,0,2.39274,510.0
2878,2393572,0,2.393572,519.0
2879,2394404,0,2.394404,512.0
2880,2395240,0,2.39524,513.0
2881,2396072,0,2.396072,505.0
2882,2396904,0,2.396904,508.0
2883,2397740,0,2.39774,511.0
2884,2398572,0,2.398572,490.0
2885,2399404,0,2.399404,514.0
2886,2400240,0,2.40024,516.0
2887,2401072,0,2.401072,513.0
2888,2401904,0,2.401904,510.0
2889,2402740,0,2.40274,504.0
2890,2403572,0,2.403572,512.0
2891,2404404,0,2.404404,512.0
2892,2405240,0,2.40524,511.0
2893,2406072,0,2.406072,510.0
2894,2406904,0,2.406904,518.0
2895,2407740,0,2.40774,513.0
2896,2408572,0,2.408572,513.0
2897,2409404,0,2.409404,511.0
2898,2410240,0,2.41024,512.0
2899,2411072,0,2.411072,511.0
2900,2411908,0,2.411908,513.0
2901,2412740,0,2.41274,513.0
2902,2413576,0,2.413576,516.0
2903,2414408,0,2.414408,512.0
2904,2415240,0,2.41524,509.0
2905,2416072,0,2.416072,512.0
2906,2416908,0,2.416908,511.0
2907,2417740,0,2.41774,515.0
2908,2418572,0,2.418572,515.0
2909,2419408,0,2.419408,510.0
2910,2420240,0,2.42024,518.0
2911,2421072,0,2.421072,510.0
2912,2421908,0,2.421908,511.0
2913,2422740,0,2.42274,508.0
2914,2423572,0,2.423572,509.0
2915,2424408,0,2.424408,511.0
2916,2425240,0,2.42524,514.0
2917,2426072,0,2.426072,512.0
2918,2426908,0,2.426908,524.0
2919,2427740,0,2.42774,512.0
2920,2428572,0,2.428572,508.0
2921,2429408,0,2.429408,500.0
2922,2430240,0,2.43024,511.0
2923,2431072,0,2.431072,512.0
2924,2431908,0,2.431908,499.0
2925,2432740,0,2.43274,512.0
2926,2433572,0,2.433572,514.0
2927,2434408,0,2.434408,511.0
2928,2435240,0,2.43524,514.0
2929,2436072,0,2.436072,516.0
2930,2436908,0,2.436908,508.0
2931,2437740,0,2.43774,509.0
2932,2438572,0,2.438572,513.0
2933,2439408,0,2.439408,513.0
2934,2440240,0,2.44024,516.0
2935,2441076,0,2.441076,507.0
2936,2441908,0,2.441908,506.0
2937,2442740,0,2.44274,502.0
2938,2443576,0,2.443576,512.0
2939,2444408,0,2.444408,513.0
2940,2445240,0,2.44524,498.0
2941,2446076,0,2.446076,509.0
2942,2446908,0,2.446908,529.0
2943,2447740,0,2.44774,511.0
2944,2448576,0,2.448576,517.0
2945,2449408,0,2.449408,518.0
2946,2450240,0,2.45024,513.0
2947,2451076,0,2.451076,511.0
2948,2451908,0,2.451908,513.0
2949,2452740,0,2.45274,515.0
2950,2453576,0,2.453576,516.0
2951,2454408,0,2.454408,509.0
2952,2455240,0,2.45524,508.0
2953,2456076,0,2.456076,515.0
2954,2456908,0,2.456908,509.0
2955,2457740,0,2.45774,512.0
2956,2458576,0,2.458576,503.0
2957,2459408,0,2.459408,511.0
2958,2460240,0,2.46024,514.0
2959,2461076,0,2.461076,512.0
2960,2461908,0,2.461908,512.0
2961,2462740,0,2.46274,511.0
2962,2463576,0,2.463576,510.0
2963,2464408,0,2.464408,511.0
2964,2465240,0,2.46524,511.0
2965,2466076,0,2.466076,512.0
2966,2466908,0,2.466908,531.0
2967,2467744,0,2.467744,510.0
2968,2468576,0,2.468576,512.0
2969,2469408,0,2.469408,503.0
2970,2470244,0,2.470244,513.0
2971,2471076,0,2.471076,515.0
2972,2471908,0,2.471908,511.0
2973,2472744,0,2.472744,510.0
2974,2473576,0,2.473576,519.0
2975,2474408,0,2.474408,512.0
2976,2475244,0,2.475244,514.0
2977,2476076,0,2.476076,511.0
2978,2476908,0,2.476908,510.0
2979,2477744,0,2.477744,512.0
2980,2478576,0,2.478576,510.0
2981,2479408,0,2.479408,512.0
2982,2480244,0,2.480244,515.0
2983,2481076,0,2.481076,509.0
2984,2481908,0,2.481908,510.0
2985,2482744,0,2.482744,522.0
2986,2483576,0,2.483576,514.0
2987,2484408,0,2.484408,513.0
2988,2485244,0,2.485244,515.0
2989,2486076,0,2.486076,510.0
2990,2486908,0,2.486908,525.0
2991,2487744,0,2.487744,509.0
2992,2488576,0,2.488576,509.0
2993,2489408,0,2.489408,505.0
2994,2490244,0,2.490244,506.0
2995,2491076,0,2.491076,506.0
2996,2491908,0,2.491908,505.0
2997,2492744,0,2.492744,512.0
2998,2493576,0,2.493576,516.0
2999,2494412,0,2.494412,510.0
3000,2495244,0,2.495244,511.0
3001,2496076,0,2.496076,500.0
3002,2496912,0,2.496912,511.0
3003,2497744,0,2.497744,515.0
3004,2498576,0,2.498576,491.0
3005,2499412,0,2.499412,506.0
3006,2500244,0,2.500244,515.0
3007,2501076,0,2.501076,512.0
3008,2501912,0,2.501912,514.0
3009,2502744,0,2.502744,504.0
3010,2503576,0,2.503576,511.0
3011,2504412,0,2.504412,513.0
3012,2505244,0,2.505244,491.0
3013,2506076,0,2.506076,509.0
3014,2506912,0,2.506912,529.0
3015,2507744,0,2.507744,515.0
3016,2508576,0,2.508576,512.0
3017,2509412,0,2.509412,505.0
3018,2510244,0,2.510244,514.0
3019,2511076,0,2.511076,516.0
3020,2511912,0,2.511912,512.0
3021,2512744,0,2.512744,514.0
3022,2513576,0,2.513576,515.0
3023,2514412,0,2.514412,512.0
3024,2515244,0,2.515244,514.0
3025,2516076,0,2.516076,511.0
3026,2516912,0,2.516912,512.0
3027,2517744,0,2.517744,514.0
3028,2518580,0,2.51858,521.0
3029,2519412,0,2.519412,514.0
3030,2520244,0,2.520244,516.0
3031,2521080,0,2.52108,508.0
3032,2521912,0,2.521912,507.0
3033,2522744,0,2.522744,519.0
3034,2523580,0,2.52358,511.0
3035,2524412,0,2.524412,511.0
3036,2525244,0,2.525244,512.0
3037,2526080,0,2.52608,509.0
3038,2526912,0,2.526912,522.0
3039,2527744,0,2.527744,510.0
3040,2528580,0,2.52858,512.0
3041,2529412,0,2.529412,499.0
3042,2530244,0,2.530244,509.0
3043,2531080,0,2.53108,509.0
3044,2531912,0,2.531912,498.0
3045,2532744,0,2.532744,509.0
3046,2533580,0,2.53358,518.0
3047,2534412,0,2.534412,508.0
3048,2535244,0,2.535244,511.0
3049,2536080,0,2.53608,509.0
3050,2536912,0,2.536912,511.0
3051,2537744,0,2.537744,513.0
3052,2538580,0,2.53858,509.0
3053,2539412,0,2.539412,510.0
3054,2540244,0,2.540244,513.0
3055,2541080,0,2.54108,511.0
3056,2541912,0,2.541912,511.0
3057,2542744,0,2.542744,510.0
3058,2543580,0,2.54358,511.0
3059,2544412,0,2.544412,512.0
3060,2545244,0,2.545244,489.0
3061,2546080,0,2.54608,513.0
3062,2546912,0,2.546912,526.0
3063,2547748,0,2.547748,512.0
3064,2548580,0,2.54858,511.0
3065,2549412,0,2.549412,502.0
3066,2550248,0,2.550248,512.0
3067,2551080,0,2.55108,512.0
3068,2551912,0,2.551912,516.0
3069,2552748,0,2.552748,512.0
3070,2553580,0,2.55358,515.0
3071,2554412,0,2.554412,512.0
3072,2555248,0,2.555248,512.0
3073,2556080,0,2.55608,515.0
3074,2556912,0,2.556912,504.0
3075,2557748,0,2.557748,510.0
3076,2558580,0,2.55858,518.0
3077,2559412,0,2.559412,513.0
3078,2560248,0,2.560248,514.0
3079,2561080,0,2.56108,506.0
3080,2561912,0,2.561912,505.0
3081,2562748,0,2.562748,508.0
3082,2563580,0,2.56358,512.0
3083,2564412,0,2.564412,512.0
3084,2565248,0,2.565248,501.0
3085,2566080,0,2.56608,509.0
3086,2566912,0,2.566912,516.0
3087,2567748,0,2.567748,511.0
3088,2568580,0,2.56858,516.0
3089,2569412,0,2.569412,517.0
3090,2570248,0,2.570248,512.0
3091,2571080,0,2.57108,510.0
3092,2571912,0,2.571912,507.0
3093,2572748,0,2.572748,512.0
3094,2573580,0,2.57358,517.0
3095,2574416,0,2.574416,509.0
3096,2575248,0,2.575248,510.0
3097,2576080,0,2.57608,512.0
3098,2576916,0,2.576916,506.0
3099,2577748,0,2.577748,511.0
3100,2578580,0,2.57858,511.0
3101,2579416,0,2.579416,510.0
3102,2580248,0,2.580248,512.0
3103,2581080,0,2.58108,513.0
3104,2581916,0,2.581916,509.0
3105,2582748,0,2.582748,502.0
3106,2583580,0,2.58358,511.0
3107,2584416,0,2.584416,512.0
3108,2585248,0,2.585248,511.0
3109,2586080,0,2.58608,513.0
3110,2586916,0,2.586916,518.0
3111,2587748,0,2.587748,510.0
3112,2588580,0,2.58858,509.0
3113,2589416,0,2.589416,513.0
3114,2590248,0,2.590248,512.0
3115,2591080,0,2.59108,509.0
3116,2591916,0,2.591916,511.0
3117,2592748,0,2.592748,510.0
3118,2593580,0,2.59358,513.0
3119,2594416,0,2.594416,510.0
3120,2595248,0,2.595248,513.0
3121,2596080,0,2.59608,519.0
3122,2596916,0,2.596916,514.0
3123,2597748,0,2.597748,511.0
3124,2598584,0,2.598584,501.0
3125,2599416,0,2.599416,513.0
3126,2600248,0,2.600248,517.0
3127,2601084,0,2.601084,509.0
3128,2601916,0,2.601916,513.0
3129,2602748,0,2.602748,516.0
3130,2603584,0,2.603584,511.0
3131,2604416,0,2.604416,513.0
3132,2605248,0,2.605248,510.0
3133,2606088,0,2.606088,508.0
3134,2606916,0,2.606916,516.0
3135,2607748,0,2.607748,512.0
3136,2608584,0,2.608584,512.0
3137,2609416,0,2.609416,505.0
3138,2610248,0,2.610248,510.0
3139,2611084,0,2.611084,510.0
3140,2611916,0,2.611916,519.0
3141,2612748,0,2.612748,512.0
3142,2613584,0,2.613584,516.0
3143,2614416,0,2.614416,509.0
3144,2615248,0,2.615248,510.0
3145,2616084,0,2.616084,515.0
3146,2616916,0,2.616916,513.0
3147,2617748,0,2.617748,509.0
3148,2618584,0,2.618584,517.0
3149,2619416,0,2.619416,512.0
3150,2620248,0,2.620248,511.0
3151,2621084,0,2.621084,510.0
3152,2621916,0,2.621916,509.0
3153,2622748,0,2.622748,515.0
3154,2623584,0,2.623584,510.0
3155,2624416,0,2.624416,509.0
3156,2625248,0,2.625248,512.0
3157,2626084,0,2.626084,508.0
3158,2626916,0,2.626916,510.0
3159,2627752,0,2.627752,510.0
3160,2628584,0,2.628584,512.0
3161,2629416,0,2.629416,502.0
3162,2630252,0,2.630252,512.0
3163,2631084,0,2.631084,509.0
3164,2631916,0,2.631916,494.0
3165,2632752,0,2.632752,509.0
3166,2633584,0,2.633584,515.0
3167,2634416,0,2.634416,513.0
3168,2635252,0,2.635252,515.0
3169,2636084,0,2.636084,522.0
3170,2636916,0,2.636916,517.0
3171,2637752,0,2.637752,513.0
3172,2638584,0,2.638584,513.0
3173,2639416,0,2.639416,513.0
3174,2640252,0,2.640252,515.0
3175,2641084,0,2.641084,509.0
3176,2641916,0,2.641916,511.0
3177,2642752,0,2.642752,509.0
3178,2643584,0,2.643584,514.0
3179,2644416,0,2.644416,511.0
3180,2645252,0,2.645252,514.0
3181,2646084,0,2.646084,509.0
3182,2646916,0,2.646916,515.0
3183,2647752,0,2.647752,509.0
3184,2648584,0,2.648584,514.0
3185,2649416,0,2.649416,506.0
3186,2650252,0,2.650252,511.0
3187,2651084,0,2.651084,512.0
3188,2651920,0,2.65192,519.0
3189,2652752,0,2.652752,512.0
3190,2653584,0,2.653584,518.0
3191,2654420,0,2.65442,508.0
3192,2655252,0,2.655252,508.0
3193,2656084,0,2.656084,518.0
3194,2656920,0,2.65692,512.0
3195,2657752,0,2.657752,508.0
3196,2658584,0,2.658584,502.0
3197,2659420,0,2.65942,510.0
3198,2660252,0,2.660252,513.0
3199,2661084,0,2.661084,511.0
3200,2661920,0,2.66192,510.0
3201,2662752,0,2.662752,507.0
3202,2663584,0,2.663584,510.0
3203,2664420,0,2.66442,514.0
3204,2665252,0,2.665252,499.0
3205,2666084,0,2.666084,513.0
3206,2666920,0,2.66692,522.0
3207,2667752,0,2.667752,515.0
3208,2668584,0,2.668584,514.0
3209,2669420,0,2.66942,510.0
3210,2670252,0,2.670252,512.0
3211,2671084,0,2.671084,505.0
3212,2671920,0,2.67192,510.0
3213,2672752,0,2.672752,511.0
3214,2673584,0,2.673584,513.0
3215,2674420,0,2.67442,511.0
3216,2675252,0,2.675252,507.0
3217,2676084,0,2.676084,519.0
3218,2676920,0,2.67692,511.0
3219,2677752,0,2.677752,513.0
3220,2678588,0,2.678588,502.0
3221,2679420,0,2.67942,513.0
3222,2680252,0,2.680252,517.0
3223,2681088,0,2.681088,511.0
3224,2681920,0,2.68192,514.0
3225,2682752,0,2.682752,516.0
3226,2683588,0,2.683588,513.0
3227,2684420,0,2.68442,512.0
3228,2685252,0,2.685252,521.0
3229,2686088,0,2.686088,510.0
3230,2686920,0,2.68692,513.0
3231,2687752,0,2.687752,511.0
3232,2688588,0,2.688588,512.0
3233,2689420,0,2.68942,515.0
3234,2690252,0,2.690252,510.0
3235,2691088,0,2.691088,509.0
3236,2691920,0,2.69192,513.0
3237,2692752,0,2.692752,512.0
3238,2693588,0,2.693588,516.0
3239,2694420,0,2.69442,508.0
3240,2695252,0,2.695252,517.0
3241,2696088,0,2.696088,525.0
3242,2696920,0,2.69692,521.0
3243,2697752,0,2.697752,518.0
3244,2698588,0,2.698588,501.0
3245,2699420,0,2.69942,515.0
3246,2700252,0,2.700252,518.0
3247,2701088,0,2.701088,518.0
3248,2701920,0,2.70192,517.0
3249,2702752,0,2.702752,500.0
3250,2703588,0,2.703588,513.0
3251,2704420,0,2.70442,512.0
3252,2705252,0,2.705252,518.0
3253,2706088,0,2.706088,511.0
3254,2706920,0,2.70692,513.0
3255,2707756,0,2.707756,510.0
3256,2708588,0,2.708588,514.0
3257,2709420,0,2.70942,510.0
3258,2710256,0,2.710256,512.0
3259,2711088,0,2.711088,514.0
3260,2711920,0,2.71192,483.0
3261,2712756,0,2.712756,509.0
3262,2713588,0,2.713588,511.0
3263,2714420,0,2.71442,511.0
3264,2715256,0,2.715256,514.0
3265,2716088,0,2.716088,509.0
3266,2716920,0,2.71692,512.0
3267,2717756,0,2.717756,514.0
3268,2718588,0,2.718588,512.0
3269,2719420,0,2.71942,511.0
3270,2720256,0,2.720256,511.0
3271,2721088,0,2.721088,506.0
3272,2721920,0,2.72192,510.0
3273,2722756,0,2.722756,513.0
3274,2723588,0,2.723588,510.0
3275,2724420,0,2.72442,512.0
3276,2725256,0,2.725256,510.0
3277,2726088,0,2.726088,511.0
3278,2726920,0,2.72692,508.0
3279,2727756,0,2.727756,509.0
3280,2728588,0,2.728588,511.0
3281,2729420,0,2.72942,505.0
3282,2730256,0,2.730256,510.0
3283,2731088,0,2.731088,514.0
3284,2731924,0,2.731924,498.0
3285,2732756,0,2.732756,508.0
3286,2733588,0,2.733588,508.0
3287,2734424,0,2.734424,512.0
3288,2735256,0,2.735256,514.0
3289,2736088,0,2.736088,517.0
3290,2736924,0,2.736924,515.0
3291,2737756,0,2.737756,511.0
3292,2738588,0,2.738588,506.0
3293,2739424,0,2.739424,515.0
3294,2740256,0,2.740256,508.0
3295,2741088,0,2.741088,514.0
3296,2741924,0,2.741924,512.0
3297,2742756,0,2.742756,505.0
3298,2743588,0,2.743588,511.0
3299,2744424,0,2.744424,509.0
3300,2745256,0,2.745256,514.0
3301,2746088,0,2.746088,508.0
3302,2746924,0,2.746924,513.0
3303,2747756,0,2.747756,513.0
3304,2748588,0,2.748588,511.0
3305,2749424,0,2.749424,499.0
3306,2750256,0,2.750256,512.0
3307,2751088,0,2.751088,506.0
3308,2751924,0,2.751924,513.0
3309,2752756,0,2.752756,515.0
3310,2753588,0,2.753588,514.0
3311,2754424,0,2.754424,513.0
3312,2755256,0,2.755256,512.0
3313,2756088,0,2.756088,497.0
3314,2756924,0,2.756924,512.0
3315,2757756,0,2.757756,511.0
3316,2758588,0,2.758588,505.0
3317,2759424,0,2.759424,510.0
3318,2760256,0,2.760256,512.0
3319,2761092,0,2.761092,503.0
3320,2761924,0,2.761924,514.0
3321,2762760,0,2.76276,508.0
3322,2763592,0,2.763592,513.0
3323,2764424,0,2.764424,513.0
3324,2765256,0,2.765256,498.0
3325,2766092,0,2.766092,505.0
3326,2766924,0,2.766924,511.0
3327,2767756,0,2.767756,510.0
3328,2768592,0,2.768592,515.0
3329,2769424,0,2.769424,513.0
3330,2770256,0,2.770256,511.0
3331,2771092,0,2.771092,506.0
3332,2771924,0,2.771924,503.0
3333,2772756,0,2.772756,510.0
3334,2773592,0,2.773592,509.0
3335,2774424,0,2.774424,510.0
3336,2775256,0,2.775256,513.0
3337,2776092,0,2.776092,500.0
3338,2776924,0,2.776924,508.0
3339,2777756,0,2.777756,513.0
3340,2778592,0,2.778592,484.0
3341,2779424,0,2.779424,515.0
3342,2780256,0,2.780256,513.0
3343,2781092,0,2.781092,506.0
3344,2781924,0,2.781924,515.0
3345,2782756,0,2.782756,513.0
3346,2783592,0,2.783592,509.0
3347,2784424,0,2.784424,513.0
3348,2785256,0,2.785256,516.0
3349,2786092,0,2.786092,511.0
3350,2786924,0,2.786924,515.0
3351,2787760,0,2.78776,511.0
3352,2788592,0,2.788592,508.0
3353,2789424,0,2.789424,517.0
3354,2790260,0,2.79026,508.0
3355,2791092,0,2.791092,508.0
3356,2791924,0,2.791924,507.0
3357,2792760,0,2.79276,509.0
3358,2793592,0,2.793592,507.0
3359,2794424,0,2.794424,511.0
3360,2795260,0,2.79526,511.0
3361,2796092,0,2.796092,502.0
3362,2796924,0,2.796924,513.0
3363,2797760,0,2.79776,512.0
3364,2798592,0,2.798592,498.0
3365,2799424,0,2.799424,512.0
3366,2800260,0,2.80026,515.0
3367,2801092,0,2.801092,513.0
3368,2801924,0,2.801924,514.0
3369,2802760,0,2.80276,497.0
3370,2803592,0,2.803592,514.0
3371,2804424,0,2.804424,514.0
3372,2805260,0,2.80526,513.0
3373,2806092,0,2.806092,513.0
3374,2806924,0,2.806924,516.0
3375,2807760,0,2.80776,511.0
3376,2808592,0,2.808592,511.0
3377,2809424,0,2.809424,513.0
3378,2810260,0,2.81026,512.0
3379,2811092,0,2.811092,510.0
3380,2811924,0,2.811924,510.0
3381,2812760,0,2.81276,511.0
3382,2813592,0,2.813592,512.0
3383,2814428,0,2.814428,513.0
3384,2815260,0,2.81526,516.0
3385,2816092,0,2.816092,514.0
3386,2816928,0,2.816928,510.0
3387,2817760,0,2.81776,511.0
3388,2818592,0,2.818592,512.0
3389,2819428,0,2.819428,512.0
3390,2820260,0,2.82026,511.0
3391,2821092,0,2.821092,510.0
3392,2821928,0,2.821928,511.0
3393,2822760,0,2.82276,513.0
3394,2823592,0,2.823592,513.0
3395,2824428,0,2.824428,513.0
3396,2825260,0,2.82526,499.0
3397,2826092,0,2.826092,507.0
3398,2826928,0,2.826928,512.0
3399,2827760,0,2.82776,513.0
3400,2828592,0,2.828592,513.0
3401,2829428,0,2.829428,507.0
3402,2830260,0,2.83026,512.0
3403,2831092,0,2.831092,517.0
3404,2831928,0,2.831928,505.0
3405,2832760,0,2.83276,516.0
3406,2833592,0,2.833592,517.0
3407,2834428,0,2.834428,518.0
3408,2835260,0,2.83526,521.0
3409,2836092,0,2.836092,497.0
3410,2836928,0,2.836928,509.0
3411,2837760,0,2.83776,512.0
3412,2838596,0,2.838596,511.0
3413,2839428,0,2.839428,510.0
3414,2840260,0,2.84026,515.0
3415,2841096,0,2.841096,506.0
3416,2841928,0,2.841928,506.0
3417,2842760,0,2.84276,507.0
3418,2843596,0,2.843596,507.0
3419,2844428,0,2.844428,507.0
3420,2845260,0,2.84526,504.0
3421,2846096,0,2.846096,508.0
3422,2846928,0,2.846928,508.0
3423,2847760,0,2.84776,510.0
3424,2848596,0,2.848596,512.0
3425,2849428,0,2.849428,515.0
3426,2850260,0,2.85026,512.0
3427,2851096,0,2.851096,510.0
3428,2851928,0,2.851928,513.0
3429,2852760,0,2.85276,509.0
3430,2853596,0,2.853596,513.0
3431,2854428,0,2.854428,511.0
3432,2855260,0,2.85526,508.0
3433,2856096,0,2.856096,507.0
3434,2856928,0,2.856928,510.0
3435,2857760,0,2.85776,506.0
3436,2858596,0,2.858596,496.0
3437,2859428,0,2.859428,510.0
3438,2860260,0,2.86026,512.0
3439,2861096,0,2.861096,507.0
3440,2861928,0,2.861928,513.0
3441,2862760,0,2.86276,498.0
3442,2863596,0,2.863596,514.0
3443,2864428,0,2.864428,510.0
3444,2865260,0,2.86526,507.0
3445,2866096,0,2.866096,512.0
3446,2866928,0,2.866928,511.0
3447,2867764,0,2.867764,513.0
3448,2868596,0,2.868596,512.0
3449,2869428,0,2.869428,505.0
3450,2870264,0,2.870264,511.0
3451,2871096,0,2.871096,512.0
3452,2871928,0,2.871928,507.0
3453,2872764,0,2.872764,511.0
3454,2873596,0,2.873596,511.0
3455,2874428,0,2.874428,512.0
3456,2875264,0,2.875264,514.0
3457,2876096,0,2.876096,510.0
3458,2876928,0,2.876928,511.0
3459,2877764,0,2.877764,514.0
3460,2878596,0,2.878596,508.0
3461,2879428,0,2.879428,510.0
3462,2880264,0,2.880264,514.0
3463,2881096,0,2.881096,509.0
3464,2881928,0,2.881928,513.0
3465,2882764,0,2.882764,515.0
3466,2883596,0,2.883596,512.0
3467,2884428,0,2.884428,514.0
3468,2885264,0,2.885264,510.0
3469,2886096,0,2.886096,512.0
3470,2886928,0,2.886928,510.0
3471,2887764,0,2.887764,509.0
3472,2888596,0,2.888596,510.0
3473,2889428,0,2.889428,509.0
3474,2890264,0,2.890264,507.0
3475,2891096,0,2.891096,512.0
3476,2891932,0,2.891932,499.0
3477,2892764,0,2.892764,512.0
3478,2893596,0,2.893596,511.0
3479,2894432,0,2.894432,512.0
3480,2895264,0,2.895264,515.0
3481,2896096,0,2.896096,501.0
3482,2896932,0,2.896932,510.0
3483,2897764,0,2.897764,514.0
3484,2898596,0,2.898596,500.0
3485,2899432,0,2.899432,514.0
3486,2900264,0,2.900264,517.0
3487,2901096,0,2.901096,511.0
3488,2901932,0,2.901932,514.0
3489,2902764,0,2.902764,496.0
3490,2903596,0,2.903596,511.0
3491,2904432,0,2.904432,513.0
3492,2905264,0,2.905264,513.0
3493,2906096,0,2.906096,513.0
3494,2906932,0,2.906932,515.0
3495,2907764,0,2.907764,511.0
3496,2908596,0,2.908596,510.0
3497,2909432,0,2.909432,511.0
3498,2910264,0,2.910264,512.0
3499,2911096,0,2.911096,512.0
3500,2911932,0,2.911932,511.0
3501,2912764,0,2.912764,510.0
3502,2913596,0,2.913596,506.0
3503,2914432,0,2.914432,509.0
3504,2915264,0,2.915264,513.0
3505,2916096,0,2.916096,513.0
3506,2916932,0,2.916932,513.0
3507,2917764,0,2.917764,509.0
3508,2918596,0,2.918596,507.0
3509,2919432,0,2.919432,515.0
3510,2920264,0,2.920264,519.0
3511,2921100,0,2.9211,511.0
3512,2921932,0,2.921932,512.0
3513,2922764,0,2.922764,512.0
3514,2923600,0,2.9236,511.0
3515,2924432,0,2.924432,510.0
3516,2925264,0,2.925264,507.0
3517,2926100,0,2.9261,511.0
3518,2926932,0,2.926932,511.0
3519,2927764,0,2.927764,508.0
3520,2928600,0,2.9286,514.0
3521,2929432,0,2.929432,499.0
3522,2930264,0,2.930264,510.0
3523,2931100,0,2.9311,518.0
3524,2931932,0,2.931932,508.0
3525,2932764,0,2.932764,515.0
3526,2933600,0,2.9336,515.0
3527,2934432,0,2.934432,514.0
3528,2935264,0,2.935264,518.0
3529,2936100,0,2.9361,514.0
3530,2936932,0,2.936932,512.0
3531,2937764,0,2.937764,512.0
3532,2938600,0,2.9386,504.0
3533,2939432,0,2.939432,510.0
3534,2940264,0,2.940264,516.0
3535,2941100,0,2.9411,512.0
3536,2941932,0,2.941932,511.0
3537,2942764,0,2.942764,508.0
3538,2943600,0,2.9436,513.0
3539,2944432,0,2.944432,515.0
3540,2945264,0,2.945264,505.0
3541,2946100,0,2.9461,509.0
3542,2946932,0,2.946932,510.0
3543,2947768,0,2.947768,511.0
3544,2948600,0,2.9486,513.0
3545,2949432,0,2.949432,513.0
3546,2950268,0,2.950268,503.0
3547,2951100,0,2.9511,512.0
3548,2951932,0,2.951932,506.0
3549,2952768,0,2.952768,509.0
3550,2953600,0,2.9536,510.0
3551,2954432,0,2.954432,508.0
3552,2955272,0,2.955272,503.0
3553,2956100,0,2.9561,514.0
3554,2956932,0,2.956932,512.0
3555,2957768,0,2.957768,512.0
3556,2958600,0,2.9586,509.0
3557,2959432,0,2.959432,509.0
3558,2960268,0,2.960268,505.0
3559,2961100,0,2.9611,508.0
3560,2961932,0,2.961932,509.0
3561,2962768,0,2.962768,494.0
3562,2963600,0,2.9636,510.0
3563,2964432,0,2.964432,514.0
3564,2965268,0,2.965268,497.0
3565,2966100,0,2.9661,515.0
3566,2966932,0,2.966932,515.0
3567,2967768,0,2.967768,515.0
3568,2968600,0,2.9686,511.0
3569,2969432,0,2.969432,514.0
3570,2970268,0,2.970268,502.0
3571,2971100,0,2.9711,509.0
3572,2971936,0,2.971936,503.0
3573,2972768,0,2.972768,510.0
3574,2973600,0,2.9736,513.0
3575,2974436,0,2.974436,514.0
3576,2975268,0,2.975268,509.0
3577,2976100,0,2.9761,514.0
3578,2976936,0,2.976936,514.0
3579,2977768,0,2.977768,511.0
3580,2978600,0,2.9786,506.0
3581,2979436,0,2.979436,509.0
3582,2980268,0,2.980268,510.0
3583,2981100,0,2.9811,509.0
3584,2981936,0,2.981936,514.0
3585,2982768,0,2.982768,514.0
3586,2983600,0,2.9836,512.0
3587,2984436,0,2.984436,513.0
3588,2985268,0,2.985268,508.0
3589,2986100,0,2.9861,513.0
3590,2986936,0,2.986936,513.0
3591,2987768,0,2.987768,511.0
3592,2988600,0,2.9886,514.0
3593,2989436,0,2.989436,509.0
3594,2990268,0,2.990268,507.0
3595,2991100,0,2.9911,512.0
3596,2991936,0,2.991936,504.0
3597,2992768,0,2.992768,510.0
3598,2993600,0,2.9936,510.0
3599,2994436,0,2.994436,510.0
3600,2995268,0,2.995268,511.0
3601,2996100,0,2.9961,503.0
3602,2996936,0,2.996936,510.0
3603,2997768,0,2.997768,513.0
3604,2998600,0,2.9986,499.0
3605,2999436,0,2.999436,513.0
3606,3000268,0,3.000268,510.0
3607,3001104,0,3.001104,514.0
3608,3001936,0,3.001936,512.0
3609,3002768,0,3.002768,509.0
3610,3003604,0,3.003604,515.0
3611,3004436,0,3.004436,514.0
3612,3005268,0,3.005268,512.0
3613,3006104,0,3.006104,513.0
3614,3006936,0,3.006936,511.0
3615,3007768,0,3.007768,511.0
3616,3008604,0,3.008604,511.0
3617,3009436,0,3.009436,515.0
3618,3010268,0,3.010268,513.0
3619,3011104,0,3.011104,508.0
3620,3011936,0,3.011936,510.0
3621,3012768,0,3.012768,508.0
3622,3013604,0,3.013604,508.0
3623,3014436,0,3.014436,508.0
3624,3015268,0,3.015268,510.0
3625,3016104,0,3.016104,513.0
3626,3016936,0,3.016936,511.0
3627,3017768,0,3.017768,509.0
3628,3018604,0,3.018604,510.0
3629,3019436,0,3.019436,512.0
3630,3020268,0,3.020268,514.0
3631,3021104,0,3.021104,511.0
3632,3021936,0,3.021936,508.0
3633,3022768,0,3.022768,505.0
3634,3023604,0,3.023604,516.0
3635,3024436,0,3.024436,512.0
3636,3025268,0,3.025268,505.0
3637,3026104,0,3.026104,511.0
3638,3026936,0,3.026936,506.0
3639,3027772,0,3.027772,513.0
3640,3028604,0,3.028604,512.0
3641,3029436,0,3.029436,516.0
3642,3030272,0,3.030272,512.0
3643,3031104,0,3.031104,511.0
3644,3031936,0,3.031936,485.0
3645,3032772,0,3.032772,511.0
3646,3033604,0,3.033604,513.0
3647,3034436,0,3.034436,511.0
3648,3035272,0,3.035272,514.0
3649,3036104,0,3.036104,497.0
3650,3036936,0,3.036936,514.0
3651,3037772,0,3.037772,513.0
3652,3038604,0,3.038604,512.0
3653,3039436,0,3.039436,514.0
3654,3040272,0,3.040272,512.0
3655,3041104,0,3.041104,511.0
3656,3041936,0,3.041936,513.0
3657,3042772,0,3.042772,508.0
3658,3043604,0,3.043604,514.0
3659,3044436,0,3.044436,512.0
3660,3045272,0,3.045272,503.0
3661,3046104,0,3.046104,512.0
3662,3046936,0,3.046936,511.0
3663,3047772,0,3.047772,509.0
3664,3048604,0,3.048604,514.0
3665,3049436,0,3.049436,518.0
3666,3050272,0,3.050272,511.0
3667,3051104,0,3.051104,512.0
3668,3051940,0,3.05194,513.0
3669,3052772,0,3.052772,511.0
3670,3053604,0,3.053604,511.0
3671,3054440,0,3.05444,509.0
3672,3055272,0,3.055272,508.0
3673,3056104,0,3.056104,505.0
3674,3056940,0,3.05694,509.0
3675,3057772,0,3.057772,512.0
3676,3058604,0,3.058604,508.0
3677,3059440,0,3.05944,515.0
3678,3060272,0,3.060272,511.0
3679,3061104,0,3.061104,511.0
3680,3061940,0,3.06194,511.0
3681,3062772,0,3.062772,501.0
3682,3063604,0,3.063604,506.0
3683,3064440,0,3.06444,513.0
3684,3065272,0,3.065272,503.0
3685,3066104,0,3.066104,512.0
3686,3066940,0,3.06694,511.0
3687,3067772,0,3.067772,513.0
3688,3068604,0,3.068604,512.0
3689,3069440,0,3.06944,506.0
3690,3070272,0,3.070272,512.0
3691,3071104,0,3.071104,509.0
3692,3071940,0,3.07194,513.0
3693,3072772,0,3.072772,509.0
3694,3073604,0,3.073604,509.0
3695,3074440,0,3.07444,511.0
3696,3075272,0,3.075272,511.0
3697,3076104,0,3.076104,513.0
3698,3076940,0,3.07694,514.0
3699,3077772,0,3.077772,510.0
3700,3078608,0,3.078608,490.0
3701,3079440,0,3.07944,507.0
3702,3080272,0,3.080272,515.0
3703,3081108,0,3.081108,515.0
3704,3081940,0,3.08194,511.0
3705,3082772,0,3.082772,515.0
3706,3083608,0,3.083608,513.0
3707,3084440,0,3.08444,511.0
3708,3085272,0,3.085272,512.0
3709,3086108,0,3.086108,513.0
3710,3086940,0,3.08694,514.0
3711,3087772,0,3.087772,510.0
3712,3088608,0,3.088608,513.0
3713,3089440,0,3.08944,516.0
3714,3090272,0,3.090272,511.0
3715,3091108,0,3.091108,511.0
3716,3091940,0,3.09194,513.0
3717,3092772,0,3.092772,511.0
3718,3093608,0,3.093608,513.0
3719,3094440,0,3.09444,511.0
3720,3095272,0,3.095272,511.0
3721,3096108,0,3.096108,496.0
3722,3096940,0,3.09694,512.0
3723,3097772,0,3.097772,511.0
3724,3098608,0,3.098608,489.0
3725,3099440,0,3.09944,515.0
3726,3100272,0,3.100272,514.0
3727,3101108,0,3.101108,512.0
3728,3101940,0,3.10194,517.0
3729,3102772,0,3.102772,512.0
3730,3103608,0,3.103608,515.0
3731,3104440,0,3.10444,514.0
3732,3105276,0,3.105276,507.0
3733,3106108,0,3.106108,511.0
3734,3106940,0,3.10694,512.0
3735,3107776,0,3.107776,515.0
3736,3108608,0,3.108608,512.0
3737,3109440,0,3.10944,508.0
3738,3110276,0,3.110276,510.0
3739,3111108,0,3.111108,512.0
3740,3111944,0,3.111944,510.0
3741,3112776,0,3.112776,509.0
3742,3113608,0,3.113608,508.0
3743,3114440,0,3.11444,508.0
3744,3115276,0,3.115276,510.0
3745,3116108,0,3.116108,508.0
3746,3116940,0,3.11694,508.0
3747,3117776,0,3.117776,513.0
3748,3118608,0,3.118608,505.0
3749,3119440,0,3.11944,512.0
3750,3120276,0,3.120276,508.0
3751,3121108,0,3.121108,513.0
3752,3121940,0,3.12194,511.0
3753,3122776,0,3.122776,506.0
3754,3123608,0,3.123608,512.0
3755,3124440,0,3.12444,514.0
3756,3125276,0,3.125276,505.0
3757,3126108,0,3.126108,509.0
3758,3126940,0,3.12694,509.0
3759,3127776,0,3.127776,513.0
3760,3128608,0,3.128608,512.0
3761,3129440,0,3.12944,505.0
3762,3130276,0,3.130276,513.0
3763,3131108,0,3.131108,511.0
3764,3131940,0,3.13194,483.0
3765,3132776,0,3.132776,510.0
3766,3133608,0,3.133608,512.0
3767,3134444,0,3.134444,514.0
3768,3135276,0,3.135276,519.0
3769,3136108,0,3.136108,514.0
3770,3136944,0,3.136944,517.0
3771,3137776,0,3.137776,513.0
3772,3138608,0,3.138608,515.0
3773,3139444,0,3.139444,511.0
3774,3140276,0,3.140276,511.0
3775,3141108,0,3.141108,512.0
3776,3141944,0,3.141944,513.0
3777,3142776,0,3.142776,510.0
3778,3143608,0,3.143608,514.0
3779,3144444,0,3.144444,508.0
3780,3145276,0,3.145276,485.0
3781,3146108,0,3.146108,512.0
3782,3146944,0,3.146944,515.0
3783,3147776,0,3.147776,516.0
3784,3148608,0,3.148608,518.0
3785,3149444,0,3.149444,510.0
3786,3150276,0,3.150276,516.0
3787,3151108,0,3.151108,518.0
3788,3151944,0,3.151944,513.0
3789,3152776,0,3.152776,513.0
3790,3153608,0,3.153608,513.0
3791,3154444,0,3.154444,503.0
3792,3155276,0,3.155276,511.0
3793,3156108,0,3.156108,506.0
3794,3156944,0,3.156944,509.0
3795,3157776,0,3.157776,511.0
3796,3158612,0,3.158612,504.0
3797,3159444,0,3.159444,506.0
3798,3160276,0,3.160276,509.0
3799,3161112,0,3.161112,510.0
3800,3161944,0,3.161944,514.0
3801,3162776,0,3.162776,497.0
3802,3163612,0,3.163612,513.0
3803,3164444,0,3.164444,508.0
3804,3165276,0,3.165276,493.0
3805,3166112,0,3.166112,510.0
3806,3166944,0,3.166944,511.0
3807,3167776,0,3.167776,508.0
3808,3168612,0,3.168612,515.0
3809,3169444,0,3.169444,511.0
3810,3170276,0,3.170276,512.0
3811,3171112,0,3.171112,512.0
3812,3171944,0,3.171944,511.0
3813,3172776,0,3.172776,511.0
3814,3173612,0,3.173612,511.0
3815,3174444,0,3.174444,505.0
3816,3175276,0,3.175276,510.0
3817,3176112,0,3.176112,508.0
3818,3176944,0,3.176944,511.0
3819,3177776,0,3.177776,513.0
3820,3178612,0,3.178612,512.0
3821,3179444,0,3.179444,505.0
3822,3180276,0,3.180276,509.0
3823,3181112,0,3.181112,509.0
3824,3181944,0,3.181944,510.0
3825,3182776,0,3.182776,494.0
3826,3183612,0,3.183612,509.0
3827,3184444,0,3.184444,512.0
3828,3185280,0,3.18528,514.0
3829,3186112,0,3.186112,514.0
3830,3186944,0,3.186944,517.0
3831,3187780,0,3.18778,515.0
3832,3188612,0,3.188612,510.0
3833,3189444,0,3.189444,512.0
3834,3190280,0,3.19028,512.0
3835,3191112,0,3.191112,508.0
3836,3191944,0,3.191944,511.0
3837,3192780,0,3.19278,513.0
3838,3193612,0,3.193612,514.0
3839,3194444,0,3.194444,508.0
3840,3195280,0,3.19528,515.0
3841,3196112,0,3.196112,504.0
3842,3196944,0,3.196944,515.0
3843,3197780,0,3.19778,512.0
3844,3198612,0,3.198612,495.0
3845,3199444,0,3.199444,509.0
3846,3200280,0,3.20028,512.0
3847,3201112,0,3.201112,512.0
3848,3201944,0,3.201944,516.0
3849,3202780,0,3.20278,506.0
3850,3203612,0,3.203612,515.0
3851,3204444,0,3.204444,513.0
3852,3205280,0,3.20528,499.0
3853,3206112,0,3.206112,515.0
3854,3206944,0,3.206944,515.0
3855,3207780,0,3.20778,509.0
3856,3208612,0,3.208612,513.0
3857,3209444,0,3.209444,512.0
3858,3210280,0,3.21028,511.0
3859,3211112,0,3.211112,515.0
3860,3211948,0,3.211948,498.0
3861,3212780,0,3.21278,515.0
3862,3213612,0,3.213612,515.0
3863,3214448,0,3.214448,513.0
3864,3215280,0,3.21528,517.0
3865,3216112,0,3.216112,515.0
3866,3216948,0,3.216948,514.0
3867,3217780,0,3.21778,514.0
3868,3218612,0,3.218612,510.0
3869,3219448,0,3.219448,512.0
3870,3220280,0,3.22028,509.0
3871,3221112,0,3.221112,509.0
3872,3221948,0,3.221948,511.0
3873,3222780,0,3.22278,497.0
3874,3223612,0,3.223612,510.0
3875,3224448,0,3.224448,515.0
3876,3225280,0,3.22528,508.0
3877,3226112,0,3.226112,514.0
3878,3226948,0,3.226948,513.0
3879,3227780,0,3.22778,515.0
3880,3228612,0,3.228612,515.0
3881,3229448,0,3.229448,501.0
3882,3230280,0,3.23028,510.0
3883,3231112,0,3.231112,514.0
3884,3231948,0,3.231948,485.0
3885,3232780,0,3.23278,455.0
3886,3233612,0,3.233612,524.0
3887,3234448,0,3.234448,526.0
3888,3235280,0,3.23528,524.0
3889,3236112,0,3.236112,513.0
3890,3236948,0,3.236948,518.0
3891,3237780,0,3.23778,518.0
3892,3238612,0,3.238612,513.0
3893,3239448,0,3.239448,517.0
3894,3240280,0,3.24028,509.0
3895,3241116,0,3.241116,513.0
3896,3241948,0,3.241948,512.0
3897,3242780,0,3.24278,511.0
3898,3243616,0,3.243616,517.0
3899,3244448,0,3.244448,511.0
3900,3245280,0,3.24528,506.0
3901,3246116,0,3.246116,511.0
3902,3246948,0,3.246948,508.0
3903,3247780,0,3.24778,509.0
3904,3248616,0,3.248616,510.0
3905,3249448,0,3.249448,514.0
3906,3250280,0,3.25028,514.0
3907,3251116,0,3.251116,510.0
3908,3251948,0,3.251948,516.0
3909,3252780,0,3.25278,514.0
3910,3253616,0,3.253616,522.0
3911,3254448,0,3.254448,509.0
3912,3255280,0,3.25528,511.0
3913,3256116,0,3.256116,496.0
3914,3256948,0,3.256948,511.0
3915,3257780,0,3.25778,512.0
3916,3258616,0,3.258616,504.0
3917,3259448,0,3.259448,513.0
3918,3260280,0,3.26028,513.0
3919,3261116,0,3.261116,494.0
3920,3261948,0,3.261948,521.0
3921,3262780,0,3.26278,505.0
3922,3263616,0,3.263616,518.0
3923,3264448,0,3.264448,518.0
3924,3265280,0,3.26528,512.0
3925,3266116,0,3.266116,514.0
3926,3266948,0,3.266948,513.0
3927,3267784,0,3.267784,517.0
3928,3268616,0,3.268616,517.0
3929,3269448,0,3.269448,497.0
3930,3270284,0,3.270284,513.0
3931,3271116,0,3.271116,517.0
3932,3271948,0,3.271948,502.0
3933,3272784,0,3.272784,513.0
3934,3273616,0,3.273616,516.0
3935,3274448,0,3.274448,513.0
3936,3275284,0,3.275284,511.0
3937,3276116,0,3.276116,509.0
3938,3276948,0,3.276948,510.0
3939,3277784,0,3.277784,514.0
3940,3278616,0,3.278616,509.0
3941,3279448,0,3.279448,511.0
3942,3280284,0,3.280284,508.0
3943,3281116,0,3.281116,509.0
3944,3281948,0,3.281948,513.0
3945,3282784,0,3.282784,513.0
3946,3283616,0,3.283616,513.0
3947,3284448,0,3.284448,510.0
3948,3285284,0,3.285284,515.0
3949,3286116,0,3.286116,511.0
3950,3286948,0,3.286948,515.0
3951,3287784,0,3.287784,507.0
3952,3288616,0,3.288616,509.0
3953,3289448,0,3.289448,504.0
3954,3290284,0,3.290284,511.0
3955,3291116,0,3.291116,511.0
3956,3291952,0,3.291952,515.0
3957,3292784,0,3.292784,510.0
3958,3293616,0,3.293616,519.0
3959,3294452,0,3.294452,510.0
3960,3295284,0,3.295284,511.0
3961,3296116,0,3.296116,496.0
3962,3296952,0,3.296952,507.0
3963,3297784,0,3.297784,511.0
3964,3298616,0,3.298616,494.0
3965,3299452,0,3.299452,510.0
3966,3300284,0,3.300284,510.0
3967,3301116,0,3.301116,513.0
3968,3301952,0,3.301952,513.0
3969,3302784,0,3.302784,510.0
3970,3303616,0,3.303616,517.0
3971,3304456,0,3.304456,511.0
3972,3305284,0,3.305284,503.0
3973,3306116,0,3.306116,514.0
3974,3306952,0,3.306952,516.0
3975,3307784,0,3.307784,516.0
3976,3308616,0,3.308616,512.0
3977,3309452,0,3.309452,509.0
3978,3310284,0,3.310284,513.0
3979,3311116,0,3.311116,510.0
3980,3311952,0,3.311952,510.0
3981,3312784,0,3.312784,511.0
3982,3313616,0,3.313616,517.0
3983,3314452,0,3.314452,510.0
3984,3315284,0,3.315284,510.0
3985,3316116,0,3.316116,494.0
3986,3316952,0,3.316952,512.0
3987,3317784,0,3.317784,514.0
3988,3318620,0,3.31862,511.0
3989,3319452,0,3.319452,512.0
3990,3320284,0,3.320284,514.0
3991,3321120,0,3.32112,514.0
3992,3321952,0,3.321952,512.0
3993,3322784,0,3.322784,513.0
3994,3323620,0,3.32362,506.0
3995,3324452,0,3.324452,510.0
3996,3325284,0,3.325284,509.0
3997,3326120,0,3.32612,512.0
3998,3326952,0,3.326952,512.0
3999,3327784,0,3.327784,510.0
4000,3328620,0,3.32862,513.0
4001,3329452,0,3.329452,493.0
4002,3330284,0,3.330284,508.0
4003,3331120,0,3.33112,513.0
4004,3331952,0,3.331952,491.0
4005,3332784,0,3.332784,513.0
4006,3333620,0,3.33362,521.0
4007,3334452,0,3.334452,515.0
4008,3335284,0,3.335284,517.0
4009,3336120,0,3.33612,515.0
4010,3336952,0,3.336952,511.0
4011,3337784,0,3.337784,513.0
4012,3338620,0,3.33862,499.0
4013,3339452,0,3.339452,511.0
4014,3340284,0,3.340284,510.0
4015,3341120,0,3.34112,508.0
4016,3341952,0,3.341952,511.0
4017,3342784,0,3.342784,512.0
4018,3343620,0,3.34362,503.0
4019,3344452,0,3.344452,511.0
4020,3345284,0,3.345284,506.0
4021,3346120,0,3.34612,511.0
4022,3346952,0,3.346952,510.0
4023,3347788,0,3.347788,512.0
4024,3348620,0,3.34862,504.0
4025,3349452,0,3.349452,511.0
4026,3350288,0,3.350288,514.0
4027,3351120,0,3.35112,512.0
4028,3351952,0,3.351952,513.0
4029,3352788,0,3.352788,511.0
4030,3353620,0,3.35362,513.0
4031,3354452,0,3.354452,513.0
4032,3355288,0,3.355288,509.0
4033,3356120,0,3.35612,509.0
4034,3356952,0,3.356952,515.0
4035,3357788,0,3.357788,512.0
4036,3358620,0,3.35862,507.0
4037,3359452,0,3.359452,512.0
4038,3360288,0,3.360288,511.0
4039,3361120,0,3.36112,510.0
4040,3361952,0,3.361952,510.0
4041,3362788,0,3.362788,501.0
4042,3363620,0,3.36362,502.0
4043,3364452,0,3.364452,511.0
4044,3365288,0,3.365288,487.0
4045,3366120,0,3.36612,511.0
4046,3366952,0,3.366952,516.0
4047,3367788,0,3.367788,516.0
4048,3368620,0,3.36862,512.0
4049,3369452,0,3.369452,504.0
4050,3370288,0,3.370288,513.0
4051,3371120,0,3.37112,513.0
4052,3371952,0,3.371952,501.0
4053,3372788,0,3.372788,513.0
4054,3373620,0,3.37362,511.0
4055,3374456,0,3.374456,512.0
4056,3375288,0,3.375288,513.0
4057,3376120,0,3.37612,513.0
4058,3376956,0,3.376956,511.0
4059,3377788,0,3.377788,515.0
4060,3378620,0,3.37862,502.0
4061,3379456,0,3.379456,510.0
4062,3380288,0,3.380288,509.0
4063,3381120,0,3.38112,509.0
4064,3381956,0,3.381956,514.0
4065,3382788,0,3.382788,519.0
4066,3383620,0,3.38362,512.0
4067,3384456,0,3.384456,513.0
4068,3385288,0,3.385288,507.0
4069,3386120,0,3.38612,510.0
4070,3386956,0,3.386956,510.0
4071,3387788,0,3.387788,512.0
4072,3388620,0,3.38862,511.0
4073,3389456,0,3.389456,504.0
4074,3390288,0,3.390288,507.0
4075,3391120,0,3.39112,514.0
4076,3391956,0,3.391956,500.0
4077,3392788,0,3.392788,510.0
4078,3393620,0,3.39362,509.0
4079,3394456,0,3.394456,512.0
4080,3395288,0,3.395288,512.0
4081,3396120,0,3.39612,500.0
4082,3396956,0,3.396956,509.0
4083,3397788,0,3.397788,514.0
4084,3398620,0,3.39862,495.0
4085,3399456,0,3.399456,511.0
4086,3400288,0,3.400288,510.0
4087,3401124,0,3.401124,512.0
4088,3401956,0,3.401956,515.0
4089,3402788,0,3.402788,509.0
4090,3403624,0,3.403624,512.0
4091,3404456,0,3.404456,512.0
4092,3405288,0,3.405288,510.0
4093,3406124,0,3.406124,510.0
4094,3406956,0,3.406956,519.0
4095,3407788,0,3.407788,514.0
4096,3408624,0,3.408624,509.0
4097,3409456,0,3.409456,508.0
4098,3410288,0,3.410288,510.0
4099,3411124,0,3.411124,510.0
4100,3411956,0,3.411956,511.0
4101,3412788,0,3.412788,507.0
4102,3413624,0,3.413624,510.0
4103,3414456,0,3.414456,510.0
4104,3415288,0,3.415288,510.0
4105,3416124,0,3.416124,511.0
4106,3416956,0,3.416956,515.0
4107,3417788,0,3.417788,511.0
4108,3418624,0,3.418624,510.0
4109,3419456,0,3.419456,513.0
4110,3420288,0,3.420288,511.0
4111,3421124,0,3.421124,510.0
4112,3421956,0,3.421956,510.0
