id,Total Microseconds,Minute,Seconds,Value
0,1048,1.7466667E-5,0.001048,NaN
1,1784,2.9733334E-5,0.001784,524.0
2,2620,4.3666667E-5,0.00262,558.0
3,3452,5.7533332E-5,0.003452,547.0
4,4284,7.14E-5,0.004284,525.0
5,5120,8.533333E-5,0.00512,536.0
6,5952,9.92E-5,0.005952,526.0
7,6784,1.13066664E-4,0.006784,510.0
8,7620,1.27E-4,0.00762,494.0
9,8452,1.4086667E-4,0.008452,498.0
10,9284,1.5473334E-4,0.009284,464.0
11,10120,1.6866667E-4,0.01012,481.0
12,10952,1.8253333E-4,0.010952,495.0
13,11788,1.9646667E-4,0.011788,509.0
14,12620,2.1033334E-4,0.01262,509.0
15,13452,2.242E-4,0.013452,498.0
16,14288,2.3813333E-4,0.014288,506.0
17,15120,2.52E-4,0.01512,497.0
18,15952,2.6586666E-4,0.015952,513.0
19,16788,2.798E-4,0.016788,496.0
20,17620,2.9366667E-4,0.01762,521.0
21,18452,3.0753334E-4,0.018452,516.0
22,19288,3.2146668E-4,0.019288,510.0
23,20120,3.3533334E-4,0.02012,512.0
24,20952,3.492E-4,0.020952,510.0
25,21788,3.6313332E-4,0.021788,523.0
26,22620,3.77E-4,0.02262,512.0
27,23452,3.9086665E-4,0.023452,515.0
28,24288,4.048E-4,0.024288,507.0
29,25120,4.1866666E-4,0.02512,497.0
30,25952,4.3253333E-4,0.025952,506.0
31,26788,4.4646667E-4,0.026788,496.0
32,27620,4.6033334E-4,0.02762,498.0
33,28452,4.742E-4,0.028452,516.0
34,29288,4.8813334E-4,0.029288,517.0
35,30120,5.02E-4,0.03012,513.0
36,30952,5.158667E-4,0.030952,534.0
37,31788,5.298E-4,0.031788,540.0
38,32620,5.4366665E-4,0.03262,496.0
39,33452,5.5753335E-4,0.033452,490.0
40,34288,5.714667E-4,0.034288,523.0
41,35120,5.853333E-4,0.03512,519.0
42,35952,5.992E-4,0.035952,508.0
43,36788,6.131333E-4,0.036788,509.0
44,37620,6.27E-4,0.03762,515.0
45,38452,6.4086664E-4,0.038452,487.0
46,39288,6.548E-4,0.039288,494.0
47,40120,6.686667E-4,0.04012,544.0
48,40956,6.826E-4,0.040956,550.0
49,41788,6.9646665E-4,0.041788,524.0
50,42620,7.1033335E-4,0.04262,535.0
51,43456,7.242667E-4,0.043456,531.0
52,44288,7.381333E-4,0.044288,503.0
53,45120,7.52E-4,0.04512,488.0
54,45956,7.659333E-4,0.045956,538.0
55,46788,7.798E-4,0.046788,527.0
56,47620,7.936667E-4,0.04762,491.0
57,48456,8.076E-4,0.048456,499.0
58,49288,8.214667E-4,0.049288,506.0
59,50120,8.353333E-4,0.05012,499.0
60,50956,8.4926665E-4,0.050956,496.0
61,51788,8.6313335E-4,0.051788,552.0
62,52620,8.77E-4,0.05262,557.0
63,53456,8.909333E-4,0.053456,527.0
64,54288,9.048E-4,0.054288,519.0
65,55120,9.1866666E-4,0.05512,516.0
66,55956,9.326E-4,0.055956,523.0
67,56788,9.464667E-4,0.056788,539.0
68,57620,9.6033333E-4,0.05762,495.0
69,58456,9.742667E-4,0.058456,481.0
70,59288,9.881334E-4,0.059288,516.0
71,60120,0.001002,0.06012,495.0
72,60956,0.0010159333,0.060956,476.0
73,61788,0.0010298,0.061788,504.0
74,62620,0.0010436666,0.06262,523.0
75,63456,0.0010576,0.063456,489.0
76,64288,0.0010714667,0.064288,471.0
77,65120,0.0010853333,0.06512,498.0
78,65956,0.0010992667,0.065956,523.0
79,66788,0.0011131334,0.066788,527.0
80,67624,0.0011270667,0.067624,523.0
81,68456,0.0011409334,0.068456,512.0
82,69288,0.0011548,0.069288,517.0
83,70124,0.0011687333,0.070124,525.0
84,70956,0.0011826,0.070956,535.0
85,71788,0.0011964666,0.071788,549.0
86,72624,0.0012104,0.072624,520.0
87,73456,0.0012242667,0.073456,507.0
88,74288,0.0012381333,0.074288,492.0
89,75124,0.0012520667,0.075124,477.0
90,75956,0.0012659334,0.075956,502.0
91,76788,0.0012798,0.076788,494.0
92,77624,0.0012937334,0.077624,488.0
93,78456,0.0013076,0.078456,522.0
94,79288,0.0013214666,0.079288,546.0
95,80124,0.0013354,0.080124,550.0
96,80956,0.0013492666,0.080956,532.0
97,81788,0.0013631333,0.081788,521.0
98,82624,0.0013770667,0.082624,522.0
99,83456,0.0013909333,0.083456,493.0
100,84288,0.0014048,0.084288,505.0
101,85124,0.0014187334,0.085124,486.0
102,85956,0.0014326,0.085956,494.0
103,86788,0.0014464667,0.086788,526.0
104,87624,0.0014604,0.087624,522.0
105,88456,0.0014742666,0.088456,516.0
106,89288,0.0014881333,0.089288,517.0
107,90124,0.0015020666,0.090124,510.0
108,90956,0.0015159333,0.090956,513.0
109,91792,0.0015298667,0.091792,536.0
110,92624,0.0015437333,0.092624,521.0
111,93456,0.0015576,0.093456,528.0
112,94292,0.0015715334,0.094292,506.0
113,95124,0.0015854,0.095124,511.0
114,95956,0.0015992667,0.095956,507.0
115,96792,0.0016132,0.096792,500.0
116,97624,0.0016270666,0.097624,522.0
117,98456,0.0016409333,0.098456,508.0
118,99292,0.0016548666,0.099292,509.0
119,100124,0.0016687333,0.100124,518.0
120,100956,0.0016826,0.100956,502.0
121,101792,0.0016965333,0.101792,478.0
122,102624,0.0017104,0.102624,480.0
123,103456,0.0017242667,0.103456,559.0
124,104292,0.0017382,0.104292,580.0
125,105124,0.0017520667,0.105124,537.0
126,105956,0.0017659334,0.105956,536.0
127,106792,0.0017798666,0.106792,521.0
128,107624,0.0017937333,0.107624,497.0
129,108456,0.0018076,0.108456,508.0
130,109292,0.0018215333,0.109292,501.0
131,110124,0.0018354,0.110124,519.0
132,110956,0.0018492667,0.110956,510.0
133,111792,0.0018632,0.111792,515.0
134,112624,0.0018770667,0.112624,518.0
135,113456,0.0018909334,0.113456,507.0
136,114292,0.0019048667,0.114292,485.0
137,115124,0.0019187334,0.115124,508.0
138,115956,0.0019326,0.115956,516.0
139,116792,0.0019465333,0.116792,534.0
140,117624,0.0019604,0.117624,546.0
141,118456,0.0019742667,0.118456,509.0
142,119292,0.0019882,0.119292,479.0
143,120124,0.0020020667,0.120124,480.0
144,120960,0.002016,0.12096,508.0
145,121792,0.0020298667,0.121792,522.0
146,122624,0.0020437334,0.122624,524.0
147,123460,0.0020576667,0.12346,519.0
148,124292,0.0020715334,0.124292,522.0
149,125124,0.0020854,0.125124,520.0
150,125960,0.0020993333,0.12596,501.0
151,126792,0.0021132,0.126792,507.0
152,127624,0.0021270667,0.127624,523.0
153,128460,0.002141,0.12846,514.0
154,129292,0.0021548667,0.129292,529.0
155,130124,0.0021687334,0.130124,559.0
156,130960,0.0021826667,0.13096,498.0
157,131792,0.0021965334,0.131792,524.0
158,132624,0.0022104,0.132624,511.0
159,133460,0.0022243334,0.13346,492.0
160,134292,0.0022382,0.134292,523.0
161,135124,0.0022520667,0.135124,523.0
162,135960,0.002266,0.13596,502.0
163,136792,0.0022798667,0.136792,453.0
164,137624,0.0022937334,0.137624,475.0
165,138460,0.0023076667,0.13846,510.0
166,139292,0.0023215334,0.139292,509.0
167,140124,0.0023354,0.140124,505.0
168,140960,0.0023493334,0.14096,508.0
169,141792,0.0023632,0.141792,549.0
170,142624,0.0023770668,0.142624,566.0
171,143460,0.002391,0.14346,548.0
172,144292,0.0024048667,0.144292,525.0
173,145124,0.0024187334,0.145124,509.0
174,145960,0.0024326667,0.14596,529.0
175,146792,0.0024465334,0.146792,499.0
176,147628,0.0024604667,0.147628,504.0
177,148460,0.0024743334,0.14846,524.0
178,149292,0.0024882,0.149292,507.0
179,150128,0.0025021334,0.150128,481.0
180,150960,0.002516,0.15096,481.0
181,151792,0.0025298668,0.151792,538.0
182,152628,0.0025438,0.152628,526.0
183,153460,0.0025576667,0.15346,507.0
184,154292,0.0025715334,0.154292,539.0
185,155128,0.0025854667,0.155128,523.0
186,155960,0.0025993334,0.15596,509.0
187,156792,0.0026132,0.156792,501.0
188,157628,0.0026271334,0.157628,501.0
189,158460,0.002641,0.15846,509.0
190,159292,0.0026548668,0.159292,523.0
191,160128,0.0026688,0.160128,551.0
192,160960,0.0026826668,0.16096,504.0
193,161792,0.0026965332,0.161792,462.0
194,162628,0.0027104667,0.162628,509.0
195,163460,0.0027243334,0.16346,539.0
196,164292,0.0027382,0.164292,526.0
197,165128,0.0027521334,0.165128,502.0
198,165960,0.002766,0.16596,520.0
199,166792,0.0027798666,0.166792,515.0
200,167628,0.0027938,0.167628,515.0
201,168460,0.0028076668,0.16846,571.0
202,169292,0.0028215332,0.169292,524.0
203,170128,0.0028354668,0.170128,530.0
204,170960,0.0028493332,0.17096,497.0
205,171792,0.0028632,0.171792,519.0
206,172628,0.0028771334,0.172628,471.0
207,173460,0.002891,0.17346,503.0
208,174296,0.0029049334,0.174296,522.0
209,175128,0.0029188,0.175128,497.0
210,175960,0.0029326666,0.17596,466.0
211,176796,0.0029466,0.176796,482.0
212,177628,0.0029604668,0.177628,511.0
213,178460,0.0029743332,0.17846,502.0
214,179296,0.0029882668,0.179296,526.0
215,180128,0.0030021332,0.180128,581.0
216,180960,0.003016,0.18096,566.0
217,181796,0.0030299334,0.181796,532.0
218,182628,0.0030438,0.182628,545.0
219,183460,0.0030576666,0.18346,528.0
220,184296,0.0030716,0.184296,486.0
221,185128,0.0030854666,0.185128,527.0
222,185960,0.0030993333,0.18596,531.0
223,186796,0.0031132668,0.186796,469.0
224,187628,0.0031271332,0.187628,463.0
225,188460,0.003141,0.18846,504.0
226,189296,0.0031549332,0.189296,498.0
227,190128,0.0031688,0.190128,499.0
228,190960,0.0031826666,0.19096,519.0
229,191796,0.0031966,0.191796,516.0
230,192628,0.0032104666,0.192628,487.0
231,193460,0.0032243333,0.19346,552.0
232,194296,0.0032382666,0.194296,563.0
233,195128,0.0032521333,0.195128,541.0
234,195960,0.003266,0.19596,504.0
235,196796,0.0032799332,0.196796,525.0
236,197628,0.0032938,0.197628,515.0
237,198464,0.0033077332,0.198464,523.0
238,199296,0.0033216,0.199296,516.0
239,200128,0.0033354666,0.200128,500.0
240,200964,0.0033494,0.200964,508.0
241,201796,0.0033632666,0.201796,497.0
242,202628,0.0033771333,0.202628,528.0
243,203464,0.0033910666,0.203464,488.0
244,204296,0.0034049333,0.204296,460.0
245,205128,0.0034188,0.205128,521.0
246,205964,0.0034327332,0.205964,499.0
247,206796,0.0034466,0.206796,513.0
248,207628,0.0034604666,0.207628,528.0
249,208464,0.0034744,0.208464,542.0
250,209296,0.0034882666,0.209296,517.0
251,210128,0.0035021333,0.210128,512.0
252,210964,0.0035160666,0.210964,530.0
253,211796,0.0035299333,0.211796,534.0
254,212628,0.0035438,0.212628,506.0
255,213464,0.0035577333,0.213464,488.0
256,214296,0.0035716,0.214296,497.0
257,215128,0.0035854666,0.215128,491.0
258,215964,0.0035994,0.215964,511.0
259,216796,0.0036132666,0.216796,530.0
260,217628,0.0036271333,0.217628,522.0
261,218464,0.0036410666,0.218464,515.0
262,219296,0.0036549333,0.219296,555.0
263,220128,0.0036688,0.220128,524.0
264,220964,0.0036827333,0.220964,536.0
265,221796,0.0036966,0.221796,556.0
266,222628,0.0037104667,0.222628,504.0
267,223464,0.0037244,0.223464,457.0
268,224296,0.0037382666,0.224296,464.0
269,225132,0.0037522,0.225132,498.0
270,225964,0.0037660666,0.225964,518.0
271,226796,0.0037799333,0.226796,498.0
272,227632,0.0037938666,0.227632,569.0
273,228464,0.0038077333,0.228464,513.0
274,229296,0.0038216,0.229296,511.0
275,230132,0.0038355333,0.230132,513.0
276,230964,0.0038494,0.230964,506.0
277,231796,0.0038632667,0.231796,517.0
278,232632,0.0038772,0.232632,517.0
279,233464,0.0038910666,0.233464,510.0
280,234296,0.0039049333,0.234296,467.0
281,235132,0.0039188666,0.235132,480.0
282,235964,0.0039327336,0.235964,531.0
283,236796,0.0039466,0.236796,506.0
284,237632,0.0039605335,0.237632,522.0
285,238464,0.0039744,0.238464,545.0
286,239296,0.0039882665,0.239296,542.0
287,240132,0.0040022,0.240132,524.0
288,240964,0.0040160664,0.240964,475.0
289,241796,0.0040299334,0.241796,529.0
290,242632,0.004043867,0.242632,520.0
291,243464,0.0040577333,0.243464,486.0
292,244296,0.0040716,0.244296,536.0
293,245132,0.0040855333,0.245132,483.0
294,245964,0.0040994,0.245964,499.0
295,246796,0.0041132667,0.246796,495.0
296,247632,0.0041272,0.247632,492.0
297,248464,0.0041410667,0.248464,530.0
298,249296,0.004154933,0.249296,499.0
299,250132,0.0041688667,0.250132,559.0
300,250964,0.004182733,0.250964,509.0
301,251796,0.0041966,0.251796,492.0
302,252632,0.004210533,0.252632,549.0
303,253464,0.0042244,0.253464,527.0
304,254300,0.0042383336,0.2543,483.0
305,255132,0.0042522,0.255132,486.0
306,255964,0.0042660665,0.255964,532.0
307,256800,0.00428,0.2568,559.0
308,257632,0.0042938665,0.257632,501.0
309,258464,0.0043077334,0.258464,551.0
310,259300,0.0043216664,0.2593,555.0
311,260132,0.0043355334,0.260132,511.0
312,260964,0.0043494,0.260964,493.0
313,261800,0.0043633333,0.2618,496.0
314,262632,0.0043772,0.262632,481.0
315,263464,0.0043910667,0.263464,459.0
316,264300,0.004405,0.2643,510.0
317,265132,0.0044188667,0.265132,510.0
318,265964,0.004432733,0.265964,517.0
319,266800,0.0044466667,0.2668,465.0
320,267632,0.004460533,0.267632,506.0
321,268464,0.0044744,0.268464,564.0
322,269300,0.004488333,0.2693,578.0
323,270132,0.0045022,0.270132,547.0
324,270964,0.0045160665,0.270964,536.0
325,271800,0.00453,0.2718,515.0
326,272632,0.0045438665,0.272632,513.0
327,273464,0.0045577334,0.273464,486.0
328,274300,0.0045716665,0.2743,477.0
329,275132,0.0045855334,0.275132,486.0
330,275964,0.0045994,0.275964,454.0
331,276800,0.0046133334,0.2768,492.0
332,277632,0.0046272,0.277632,502.0
333,278468,0.0046411334,0.278468,538.0
334,279300,0.004655,0.2793,544.0
335,280132,0.0046688667,0.280132,511.0
336,280968,0.0046828,0.280968,562.0
337,281800,0.0046966667,0.2818,557.0
338,282632,0.004710533,0.282632,560.0
339,283468,0.0047244667,0.283468,504.0
340,284300,0.004738333,0.2843,519.0
341,285132,0.0047522,0.285132,514.0
342,285968,0.004766133,0.285968,507.0
343,286800,0.00478,0.2868,500.0
344,287632,0.0047938665,0.287632,514.0
345,288468,0.0048078,0.288468,489.0
346,289300,0.0048216665,0.2893,521.0
347,290132,0.0048355334,0.290132,495.0
348,290968,0.0048494665,0.290968,527.0
349,291800,0.0048633334,0.2918,545.0
350,292632,0.0048772,0.292632,519.0
351,293468,0.0048911334,0.293468,526.0
352,294300,0.004905,0.2943,501.0
353,295132,0.004918867,0.295132,515.0
354,295968,0.0049328,0.295968,474.0
355,296800,0.004946667,0.2968,513.0
356,297632,0.004960533,0.297632,504.0
357,298468,0.0049744667,0.298468,493.0
358,299300,0.004988333,0.2993,492.0
359,300132,0.0050022,0.300132,511.0
360,300968,0.005016133,0.300968,494.0
361,301800,0.00503,0.3018,490.0
362,302632,0.0050438666,0.302632,516.0
363,303468,0.0050578,0.303468,557.0
364,304300,0.0050716666,0.3043,510.0
365,305136,0.0050856,0.305136,517.0
366,305968,0.0050994665,0.305968,520.0
367,306800,0.0051133335,0.3068,483.0
368,307636,0.0051272665,0.307636,540.0
369,308468,0.0051411334,0.308468,512.0
370,309300,0.005155,0.3093,528.0
371,310136,0.0051689334,0.310136,546.0
372,310968,0.0051828,0.310968,520.0
373,311800,0.005196667,0.3118,522.0
374,312636,0.0052106,0.312636,529.0
375,313468,0.005224467,0.313468,547.0
376,314300,0.0052383333,0.3143,531.0
377,315136,0.005252267,0.315136,517.0
378,315968,0.005266133,0.315968,494.0
379,316800,0.00528,0.3168,494.0
380,317636,0.005293933,0.317636,484.0
381,318472,0.0053078667,0.318472,470.0
382,319300,0.0053216666,0.3193,534.0
383,320136,0.0053356,0.320136,561.0
384,320968,0.0053494666,0.320968,516.0
385,321800,0.0053633335,0.3218,527.0
386,322636,0.0053772666,0.322636,517.0
387,323468,0.0053911335,0.323468,552.0
388,324300,0.005405,0.3243,556.0
389,325136,0.0054189335,0.325136,503.0
390,325968,0.0054328,0.325968,511.0
391,326800,0.005446667,0.3268,470.0
392,327636,0.0054606,0.327636,450.0
393,328468,0.005474467,0.328468,461.0
394,329300,0.0054883333,0.3293,506.0
395,330136,0.005502267,0.330136,504.0
396,330968,0.0055161333,0.330968,503.0
397,331800,0.00553,0.3318,552.0
398,332636,0.0055439333,0.332636,555.0
399,333468,0.0055578,0.333468,554.0
400,334304,0.005571733,0.334304,536.0
401,335136,0.0055856,0.335136,521.0
402,335968,0.0055994666,0.335968,514.0
403,336804,0.0056134,0.336804,503.0
404,337636,0.0056272666,0.337636,447.0
405,338468,0.0056411335,0.338468,453.0
406,339304,0.0056550666,0.339304,492.0
407,340136,0.0056689335,0.340136,543.0
408,340968,0.0056828,0.340968,532.0
409,341804,0.0056967335,0.341804,536.0
410,342636,0.0057106,0.342636,520.0
411,343468,0.005724467,0.343468,507.0
412,344304,0.0057384,0.344304,511.0
413,345136,0.005752267,0.345136,539.0
414,345968,0.0057661333,0.345968,561.0
415,346804,0.005780067,0.346804,500.0
416,347636,0.0057939333,0.347636,483.0
417,348468,0.0058078,0.348468,463.0
418,349304,0.0058217333,0.349304,454.0
419,350136,0.0058356,0.350136,532.0
420,350968,0.0058494667,0.350968,577.0
421,351804,0.0058634,0.351804,572.0
422,352636,0.0058772666,0.352636,519.0
423,353468,0.0058911336,0.353468,491.0
424,354304,0.0059050666,0.354304,484.0
425,355136,0.0059189335,0.355136,521.0
426,355968,0.0059328,0.355968,558.0
427,356804,0.0059467335,0.356804,544.0
428,357636,0.0059606,0.357636,480.0
429,358472,0.0059745335,0.358472,520.0
430,359304,0.0059884,0.359304,480.0
431,360136,0.006002267,0.360136,525.0
432,360972,0.0060162,0.360972,520.0
433,361804,0.006030067,0.361804,526.0
434,362636,0.0060439333,0.362636,485.0
435,363472,0.006057867,0.363472,479.0
436,364304,0.0060717333,0.364304,474.0
437,365136,0.0060856,0.365136,497.0
438,365972,0.0060995333,0.365972,555.0
439,366804,0.0061134,0.366804,497.0
440,367636,0.0061272667,0.367636,490.0
441,368472,0.0061412,0.368472,494.0
442,369304,0.0061550667,0.369304,471.0
443,370136,0.006168933,0.370136,486.0
444,370972,0.0061828666,0.370972,542.0
445,371804,0.0061967336,0.371804,578.0
446,372636,0.0062106,0.372636,588.0
447,373472,0.0062245335,0.373472,544.0
448,374304,0.0062384,0.374304,506.0
449,375136,0.0062522665,0.375136,530.0
450,375972,0.0062662,0.375972,539.0
451,376804,0.0062800664,0.376804,499.0
452,377636,0.0062939334,0.377636,482.0
453,378472,0.006307867,0.378472,501.0
454,379304,0.0063217334,0.379304,444.0
455,380136,0.0063356,0.380136,500.0
456,380972,0.0063495333,0.380972,545.0
457,381804,0.0063634,0.381804,541.0
458,382636,0.0063772667,0.382636,534.0
459,383472,0.0063912,0.383472,492.0
460,384304,0.0064050667,0.384304,531.0
461,385136,0.006418933,0.385136,497.0
462,385972,0.0064328667,0.385972,506.0
463,386804,0.006446733,0.386804,512.0
464,387640,0.0064606667,0.38764,539.0
465,388472,0.006474533,0.388472,525.0
466,389304,0.0064884,0.389304,532.0
467,390140,0.0065023336,0.39014,485.0
468,390972,0.0065162,0.390972,501.0
469,391804,0.0065300665,0.391804,547.0
470,392640,0.006544,0.39264,519.0
471,393472,0.0065578665,0.393472,494.0
472,394304,0.0065717334,0.394304,531.0
473,395140,0.0065856664,0.39514,487.0
474,395972,0.0065995334,0.395972,460.0
475,396804,0.0066134,0.396804,536.0
476,397640,0.0066273334,0.39764,504.0
477,398472,0.0066412,0.398472,522.0
478,399304,0.0066550667,0.399304,498.0
479,400140,0.006669,0.40014,460.0
480,400972,0.0066828667,0.400972,502.0
481,401804,0.006696733,0.401804,516.0
482,402640,0.0067106667,0.40264,574.0
483,403472,0.006724533,0.403472,579.0
484,404304,0.0067384,0.404304,533.0
485,405140,0.006752333,0.40514,495.0
486,405972,0.0067662,0.405972,499.0
487,406804,0.0067800665,0.406804,543.0
488,407640,0.006794,0.40764,549.0
489,408472,0.0068078665,0.408472,515.0
490,409304,0.0068217334,0.409304,502.0
491,410140,0.0068356665,0.41014,477.0
492,410972,0.0068495334,0.410972,499.0
493,411808,0.0068634665,0.411808,502.0
494,412640,0.0068773334,0.41264,524.0
495,413472,0.0068912,0.413472,515.0
496,414308,0.0069051334,0.414308,478.0
497,415140,0.006919,0.41514,494.0
498,415972,0.0069328668,0.415972,479.0
499,416808,0.0069468,0.416808,499.0
500,417640,0.0069606667,0.41764,507.0
501,418472,0.006974533,0.418472,524.0
502,419308,0.0069884667,0.419308,517.0
503,420140,0.007002333,0.42014,553.0
504,420972,0.0070162,0.420972,532.0
505,421808,0.007030133,0.421808,538.0
506,422640,0.007044,0.42264,579.0
507,423472,0.0070578665,0.423472,563.0
508,424308,0.0070718,0.424308,533.0
509,425140,0.0070856665,0.42514,493.0
510,425972,0.0070995335,0.425972,453.0
511,426808,0.0071134665,0.426808,491.0
512,427640,0.0071273334,0.42764,524.0
513,428472,0.0071412,0.428472,534.0
514,429308,0.0071551334,0.429308,537.0
515,430140,0.007169,0.43014,449.0
516,430972,0.007182867,0.430972,469.0
517,431808,0.0071968,0.431808,445.0
518,432640,0.007210667,0.43264,495.0
519,433472,0.0072245332,0.433472,561.0
520,434308,0.0072384668,0.434308,540.0
521,435140,0.007252333,0.43514,537.0
522,435972,0.0072662,0.435972,472.0
523,436808,0.007280133,0.436808,503.0
524,437640,0.007294,0.43764,536.0
525,438472,0.0073078666,0.438472,554.0
526,439308,0.0073218,0.439308,519.0
527,440140,0.0073356666,0.44014,510.0
528,440976,0.0073496,0.440976,483.0
529,441808,0.0073634665,0.441808,520.0
530,442640,0.0073773335,0.44264,530.0
531,443476,0.0073912665,0.443476,530.0
532,444308,0.0074051335,0.444308,526.0
533,445140,0.007419,0.44514,504.0
534,445976,0.0074329334,0.445976,515.0
535,446808,0.0074468,0.446808,505.0
536,447640,0.007460667,0.44764,516.0
537,448476,0.0074746,0.448476,520.0
538,449308,0.007488467,0.449308,541.0
539,450140,0.0075023333,0.45014,519.0
540,450976,0.007516267,0.450976,498.0
541,451808,0.0075301332,0.451808,486.0
542,452640,0.007544,0.45264,518.0
543,453476,0.007557933,0.453476,522.0
544,454308,0.0075718,0.454308,560.0
545,455140,0.0075856666,0.45514,569.0
546,455976,0.0075996,0.455976,489.0
547,456808,0.0076134666,0.456808,493.0
548,457640,0.0076273335,0.45764,482.0
549,458476,0.0076412666,0.458476,515.0
550,459308,0.0076551335,0.459308,530.0
551,460140,0.007669,0.46014,545.0
552,460976,0.0076829335,0.460976,493.0
553,461808,0.0076968,0.461808,479.0
554,462640,0.007710667,0.46264,481.0
555,463476,0.0077246,0.463476,504.0
556,464308,0.007738467,0.464308,512.0
557,465144,0.0077524,0.465144,552.0
558,465976,0.007766267,0.465976,565.0
559,466808,0.0077801333,0.466808,474.0
560,467644,0.007794067,0.467644,521.0
561,468476,0.0078079333,0.468476,536.0
562,469308,0.0078218,0.469308,557.0
563,470144,0.007835734,0.470144,553.0
564,470976,0.0078496,0.470976,500.0
565,471808,0.007863467,0.471808,434.0
566,472644,0.0078774,0.472644,495.0
567,473476,0.007891267,0.473476,502.0
568,474308,0.007905133,0.474308,570.0
569,475144,0.007919067,0.475144,568.0
570,475976,0.007932933,0.475976,566.0
571,476808,0.0079468,0.476808,549.0
572,477644,0.007960733,0.477644,473.0
573,478476,0.0079746,0.478476,476.0
574,479308,0.007988467,0.479308,445.0
575,480144,0.0080024,0.480144,442.0
576,480976,0.008016267,0.480976,439.0
577,481808,0.008030133,0.481808,481.0
578,482644,0.008044067,0.482644,523.0
579,483476,0.008057933,0.483476,550.0
580,484308,0.0080718,0.484308,601.0
581,485144,0.008085733,0.485144,594.0
582,485976,0.0080996,0.485976,583.0
583,486808,0.008113466,0.486808,576.0
584,487644,0.0081274,0.487644,538.0
585,488476,0.008141267,0.488476,476.0
586,489308,0.008155134,0.489308,511.0
587,490144,0.008169067,0.490144,488.0
588,490976,0.008182934,0.490976,450.0
589,491812,0.008196867,0.491812,442.0
590,492644,0.0082107335,0.492644,448.0
591,493476,0.0082246,0.493476,487.0
592,494312,0.0082385335,0.494312,491.0
593,495144,0.0082524,0.495144,533.0
594,495976,0.008266266,0.495976,573.0
595,496812,0.0082802,0.496812,541.0
596,497644,0.008294066,0.497644,536.0
597,498476,0.008307933,0.498476,562.0
598,499312,0.008321866,0.499312,509.0
599,500144,0.008335734,0.500144,539.0
600,500976,0.0083496,0.500976,503.0
601,501812,0.008363534,0.501812,513.0
602,502644,0.0083774,0.502644,517.0
603,503476,0.008391267,0.503476,501.0
604,504312,0.0084052,0.504312,506.0
605,505144,0.008419067,0.505144,502.0
606,505976,0.008432933,0.505976,518.0
607,506812,0.008446867,0.506812,501.0
608,507644,0.008460733,0.507644,500.0
609,508476,0.0084746,0.508476,506.0
610,509312,0.008488533,0.509312,485.0
611,510144,0.0085024,0.510144,505.0
612,510976,0.008516267,0.510976,553.0
613,511812,0.0085302,0.511812,526.0
614,512644,0.008544067,0.512644,525.0
615,513476,0.008557933,0.513476,500.0
616,514312,0.008571867,0.514312,536.0
617,515144,0.008585733,0.515144,545.0
618,515976,0.0085996,0.515976,570.0
619,516812,0.008613533,0.516812,545.0
620,517644,0.0086274,0.517644,511.0
621,518480,0.008641333,0.51848,486.0
622,519312,0.0086552,0.519312,464.0
623,520144,0.008669066,0.520144,526.0
624,520980,0.008683,0.52098,509.0
625,521812,0.008696866,0.521812,472.0
626,522644,0.008710734,0.522644,449.0
627,523480,0.008724667,0.52348,496.0
628,524312,0.008738534,0.524312,574.0
629,525144,0.0087524,0.525144,520.0
630,525980,0.008766334,0.52598,510.0
631,526812,0.0087802,0.526812,500.0
632,527644,0.0087940665,0.527644,480.0
633,528480,0.008808,0.52848,542.0
634,529312,0.0088218665,0.529312,545.0
635,530144,0.008835733,0.530144,561.0
636,530980,0.008849666,0.53098,549.0
637,531812,0.008863533,0.531812,483.0
638,532644,0.0088774,0.532644,493.0
639,533480,0.008891333,0.53348,505.0
640,534312,0.0089052,0.534312,547.0
641,535144,0.008919067,0.535144,550.0
642,535980,0.008933,0.53598,556.0
643,536812,0.008946867,0.536812,577.0
644,537644,0.008960733,0.537644,503.0
645,538480,0.008974667,0.53848,479.0
646,539312,0.008988533,0.539312,480.0
647,540144,0.0090024,0.540144,444.0
648,540980,0.009016333,0.54098,496.0
649,541812,0.0090302,0.541812,500.0
650,542644,0.009044067,0.542644,504.0
651,543480,0.009058,0.54348,473.0
652,544312,0.009071867,0.544312,482.0
653,545144,0.009085733,0.545144,526.0
654,545980,0.009099667,0.54598,564.0
655,546812,0.009113533,0.546812,540.0
656,547648,0.009127467,0.547648,531.0
657,548480,0.009141333,0.54848,525.0
658,549312,0.0091552,0.549312,550.0
659,550148,0.009169133,0.550148,512.0
660,550980,0.009183,0.55098,506.0
661,551812,0.009196866,0.551812,519.0
662,552648,0.0092108,0.552648,516.0
663,553480,0.009224666,0.55348,487.0
664,554312,0.009238534,0.554312,540.0
665,555148,0.009252466,0.555148,540.0
666,555980,0.009266334,0.55598,518.0
667,556812,0.0092802,0.556812,529.0
668,557648,0.009294134,0.557648,500.0
669,558480,0.009308,0.55848,555.0
670,559312,0.009321867,0.559312,548.0
671,560148,0.0093358,0.560148,474.0
672,560980,0.009349667,0.56098,490.0
673,561812,0.009363533,0.561812,502.0
674,562648,0.0093774665,0.562648,530.0
675,563480,0.009391333,0.56348,474.0
676,564312,0.0094052,0.564312,448.0
677,565148,0.009419133,0.565148,507.0
678,565980,0.009433,0.56598,478.0
679,566812,0.009446867,0.566812,528.0
680,567648,0.0094608,0.567648,569.0
681,568480,0.009474667,0.56848,526.0
682,569312,0.009488533,0.569312,523.0
683,570148,0.009502467,0.570148,446.0
684,570980,0.009516333,0.57098,478.0
685,571816,0.009530267,0.571816,544.0
686,572648,0.009544133,0.572648,542.0
687,573480,0.009558,0.57348,530.0
688,574316,0.009571933,0.574316,533.0
689,575148,0.0095858,0.575148,569.0
690,575980,0.009599667,0.57598,549.0
691,576816,0.0096136,0.576816,526.0
692,577648,0.009627467,0.577648,526.0
693,578480,0.0096413335,0.57848,529.0
694,579316,0.009655267,0.579316,514.0
695,580148,0.009669133,0.580148,532.0
696,580980,0.009683,0.58098,504.0
697,581816,0.009696933,0.581816,464.0
698,582648,0.0097108,0.582648,445.0
699,583480,0.009724666,0.58348,440.0
700,584316,0.0097386,0.584316,442.0
701,585148,0.009752466,0.585148,507.0
702,585980,0.009766334,0.58598,531.0
703,586816,0.009780266,0.586816,518.0
704,587648,0.009794134,0.587648,502.0
705,588480,0.009808,0.58848,495.0
706,589316,0.009821934,0.589316,524.0
707,590148,0.0098358,0.590148,539.0
708,590980,0.009849667,0.59098,563.0
709,591816,0.0098636,0.591816,515.0
710,592648,0.009877467,0.592648,500.0
711,593480,0.009891333,0.59348,532.0
712,594316,0.009905267,0.594316,539.0
713,595148,0.009919133,0.595148,552.0
714,595980,0.009933,0.59598,526.0
715,596816,0.009946933,0.596816,490.0
716,597648,0.0099608,0.597648,528.0
717,598480,0.009974667,0.59848,537.0
718,599316,0.0099886,0.599316,522.0
719,600148,0.010002467,0.600148,484.0
720,600984,0.0100164,0.600984,466.0
721,601816,0.010030267,0.601816,504.0
722,602648,0.010044133,0.602648,489.0
723,603484,0.010058067,0.603484,518.0
724,604316,0.010071933,0.604316,452.0
725,605148,0.0100858,0.605148,454.0
726,605984,0.010099733,0.605984,531.0
727,606816,0.0101136,0.606816,577.0
728,607648,0.010127467,0.607648,549.0
729,608484,0.0101414,0.608484,520.0
730,609316,0.010155267,0.609316,520.0
731,610148,0.010169134,0.610148,539.0
732,610984,0.010183067,0.610984,544.0
733,611816,0.0101969335,0.611816,507.0
734,612648,0.0102108,0.612648,483.0
735,613484,0.0102247335,0.613484,490.0
736,614316,0.0102386,0.614316,508.0
737,615148,0.010252466,0.615148,503.0
738,615984,0.0102664,0.615984,530.0
739,616816,0.010280266,0.616816,516.0
740,617648,0.010294134,0.617648,500.0
741,618484,0.010308066,0.618484,497.0
742,619316,0.010321934,0.619316,551.0
743,620148,0.0103358,0.620148,507.0
744,620984,0.010349734,0.620984,493.0
745,621816,0.0103636,0.621816,530.0
746,622648,0.010377467,0.622648,542.0
747,623484,0.0103914,0.623484,525.0
748,624316,0.010405267,0.624316,505.0
749,625152,0.0104192,0.625152,470.0
750,625984,0.010433067,0.625984,482.0
751,626816,0.010446933,0.626816,514.0
752,627652,0.010460867,0.627652,515.0
753,628484,0.010474733,0.628484,519.0
754,629316,0.0104886,0.629316,521.0
755,630152,0.010502533,0.630152,513.0
756,630984,0.0105164,0.630984,472.0
757,631816,0.010530267,0.631816,494.0
758,632652,0.0105442,0.632652,472.0
759,633484,0.010558067,0.633484,454.0
760,634316,0.010571933,0.634316,513.0
761,635152,0.010585867,0.635152,554.0
762,635984,0.010599733,0.635984,577.0
763,636816,0.0106136,0.636816,574.0
764,637652,0.010627533,0.637652,553.0
765,638484,0.0106414,0.638484,513.0
766,639316,0.010655266,0.639316,497.0
767,640152,0.0106692,0.640152,528.0
768,640984,0.010683066,0.640984,499.0
769,641816,0.010696934,0.641816,471.0
770,642652,0.010710867,0.642652,527.0
771,643484,0.010724734,0.643484,571.0
772,644316,0.0107386,0.644316,540.0
773,645152,0.010752534,0.645152,506.0
774,645984,0.0107664,0.645984,498.0
775,646816,0.0107802665,0.646816,514.0
776,647652,0.0107942,0.647652,524.0
777,648484,0.010808066,0.648484,447.0
778,649316,0.010821933,0.649316,494.0
779,650152,0.010835866,0.650152,515.0
780,650984,0.010849733,0.650984,471.0
781,651816,0.0108636,0.651816,440.0
782,652652,0.010877533,0.652652,469.0
783,653484,0.0108914,0.653484,482.0
784,654320,0.010905334,0.65432,517.0
785,655152,0.0109192,0.655152,582.0
786,655984,0.010933067,0.655984,560.0
787,656820,0.010947,0.65682,600.0
788,657652,0.010960867,0.657652,577.0
789,658484,0.010974733,0.658484,559.0
790,659320,0.010988667,0.65932,553.0
791,660152,0.011002533,0.660152,532.0
792,660984,0.0110164,0.660984,529.0
793,661820,0.011030333,0.66182,502.0
794,662652,0.0110442,0.662652,476.0
795,663484,0.011058067,0.663484,465.0
796,664320,0.011072,0.66432,438.0
797,665152,0.011085867,0.665152,423.0
798,665984,0.011099733,0.665984,450.0
799,666820,0.011113667,0.66682,488.0
800,667656,0.0111276,0.667656,515.0
801,668484,0.0111414,0.668484,522.0
802,669320,0.011155333,0.66932,487.0
803,670152,0.0111692,0.670152,535.0
804,670984,0.011183066,0.670984,617.0
805,671820,0.011197,0.67182,553.0
806,672652,0.011210866,0.672652,572.0
807,673484,0.011224734,0.673484,552.0
808,674320,0.011238666,0.67432,521.0
809,675152,0.011252534,0.675152,542.0
810,675984,0.0112664,0.675984,576.0
811,676820,0.011280334,0.67682,554.0
812,677652,0.0112942,0.677652,503.0
813,678488,0.011308134,0.678488,521.0
814,679320,0.011322,0.67932,486.0
815,680152,0.0113358665,0.680152,462.0
816,680988,0.0113498,0.680988,455.0
817,681820,0.0113636665,0.68182,482.0
818,682652,0.011377533,0.682652,464.0
819,683488,0.0113914665,0.683488,504.0
820,684320,0.011405333,0.68432,501.0
821,685152,0.0114192,0.685152,463.0
822,685988,0.011433133,0.685988,443.0
823,686820,0.011447,0.68682,500.0
824,687652,0.011460867,0.687652,566.0
825,688488,0.0114748,0.688488,572.0
826,689320,0.011488667,0.68932,592.0
827,690152,0.011502533,0.690152,563.0
828,690988,0.011516467,0.690988,561.0
829,691820,0.011530333,0.69182,569.0
830,692652,0.0115442,0.692652,581.0
831,693488,0.011558133,0.693488,538.0
832,694320,0.011572,0.69432,481.0
833,695152,0.011585867,0.695152,479.0
834,695988,0.0115998,0.695988,519.0
835,696820,0.011613667,0.69682,525.0
836,697652,0.0116275335,0.697652,491.0
837,698488,0.011641467,0.698488,457.0
838,699320,0.011655333,0.69932,514.0
839,700152,0.0116692,0.700152,474.0
840,700988,0.011683133,0.700988,474.0
841,701820,0.011697,0.70182,495.0
842,702652,0.011710866,0.702652,466.0
843,703488,0.0117248,0.703488,509.0
844,704320,0.011738666,0.70432,517.0
845,705156,0.0117526,0.705156,544.0
846,705988,0.011766466,0.705988,499.0
847,706820,0.011780334,0.70682,504.0
848,707656,0.011794266,0.707656,532.0
849,708488,0.011808134,0.708488,573.0
850,709320,0.011822,0.70932,569.0
851,710156,0.011835934,0.710156,549.0
852,710988,0.0118498,0.710988,532.0
853,711820,0.011863667,0.71182,519.0
854,712656,0.0118776,0.712656,491.0
855,713488,0.011891467,0.713488,514.0
856,714320,0.011905333,0.71432,538.0
857,715156,0.011919267,0.715156,505.0
858,715988,0.011933133,0.715988,487.0
859,716820,0.011947,0.71682,540.0
860,717656,0.011960933,0.717656,515.0
861,718488,0.0119748,0.718488,478.0
862,719320,0.011988667,0.71932,551.0
863,720156,0.0120026,0.720156,525.0
864,720988,0.012016467,0.720988,490.0
865,721820,0.012030333,0.72182,493.0
866,722656,0.012044267,0.722656,531.0
867,723488,0.012058133,0.723488,515.0
868,724320,0.012072,0.72432,505.0
869,725156,0.012085933,0.725156,489.0
870,725988,0.0120998,0.725988,464.0
871,726820,0.012113667,0.72682,437.0
872,727656,0.0121276,0.727656,493.0
873,728488,0.012141467,0.728488,527.0
874,729320,0.0121553335,0.72932,528.0
875,730156,0.012169267,0.730156,542.0
876,730988,0.0121831335,0.730988,562.0
877,731820,0.012197,0.73182,573.0
878,732656,0.0122109335,0.732656,561.0
879,733488,0.0122248,0.733488,512.0
880,734324,0.0122387335,0.734324,522.0
881,735156,0.0122526,0.735156,501.0
882,735988,0.012266466,0.735988,495.0
883,736824,0.0122804,0.736824,502.0
884,737656,0.012294266,0.737656,523.0
885,738488,0.012308134,0.738488,499.0
886,739324,0.012322066,0.739324,487.0
887,740156,0.012335934,0.740156,540.0
888,740988,0.0123498,0.740988,529.0
889,741824,0.012363734,0.741824,494.0
890,742656,0.0123776,0.742656,506.0
891,743488,0.012391467,0.743488,519.0
892,744324,0.0124054,0.744324,523.0
893,745156,0.012419267,0.745156,534.0
894,745988,0.012433133,0.745988,539.0
895,746824,0.012447067,0.746824,473.0
896,747656,0.012460933,0.747656,501.0
897,748488,0.0124748,0.748488,534.0
898,749324,0.012488733,0.749324,535.0
899,750156,0.0125026,0.750156,479.0
900,750988,0.012516467,0.750988,484.0
901,751824,0.0125304,0.751824,525.0
902,752656,0.012544267,0.752656,511.0
903,753488,0.012558133,0.753488,506.0
904,754324,0.012572067,0.754324,488.0
905,755156,0.012585933,0.755156,479.0
906,755988,0.0125998,0.755988,464.0
907,756824,0.012613733,0.756824,508.0
908,757656,0.0126276,0.757656,574.0
909,758488,0.012641466,0.758488,563.0
910,759324,0.0126554,0.759324,541.0
911,760156,0.012669266,0.760156,555.0
912,760992,0.0126832,0.760992,586.0
913,761824,0.012697067,0.761824,502.0
914,762656,0.012710934,0.762656,482.0
915,763492,0.012724867,0.763492,526.0
916,764324,0.012738734,0.764324,507.0
917,765156,0.0127526,0.765156,494.0
918,765992,0.0127665335,0.765992,484.0
919,766824,0.0127804,0.766824,478.0
920,767656,0.012794266,0.767656,453.0
921,768492,0.0128082,0.768492,489.0
922,769324,0.012822066,0.769324,535.0
923,770156,0.012835933,0.770156,524.0
924,770992,0.012849866,0.770992,527.0
925,771824,0.012863733,0.771824,517.0
926,772656,0.0128776,0.772656,493.0
927,773492,0.012891534,0.773492,525.0
928,774324,0.0129054,0.774324,540.0
929,775156,0.012919267,0.775156,578.0
930,775992,0.0129332,0.775992,540.0
931,776824,0.012947067,0.776824,502.0
932,777656,0.012960933,0.777656,499.0
933,778492,0.012974867,0.778492,510.0
934,779324,0.012988733,0.779324,513.0
935,780156,0.0130026,0.780156,470.0
936,780992,0.013016533,0.780992,521.0
937,781824,0.0130304,0.781824,519.0
938,782656,0.013044267,0.782656,487.0
939,783492,0.0130582,0.783492,491.0
940,784324,0.013072067,0.784324,511.0
941,785160,0.013086,0.78516,533.0
942,785992,0.013099867,0.785992,548.0
943,786824,0.013113733,0.786824,551.0
944,787660,0.013127667,0.78766,483.0
945,788492,0.013141533,0.788492,473.0
946,789324,0.0131554,0.789324,518.0
947,790160,0.013169333,0.79016,514.0
948,790992,0.0131832,0.790992,519.0
949,791824,0.013197066,0.791824,568.0
950,792660,0.013211,0.79266,568.0
951,793492,0.013224866,0.793492,535.0
952,794324,0.013238734,0.794324,508.0
953,795160,0.013252666,0.79516,513.0
954,795992,0.013266534,0.795992,480.0
955,796824,0.0132804,0.796824,508.0
956,797660,0.013294334,0.79766,517.0
957,798492,0.0133082,0.798492,480.0
958,799324,0.0133220665,0.799324,523.0
959,800160,0.013336,0.80016,512.0
960,800992,0.0133498665,0.800992,557.0
961,801824,0.013363733,0.801824,519.0
962,802660,0.0133776665,0.80266,481.0
963,803492,0.013391533,0.803492,485.0
964,804324,0.0134054,0.804324,485.0
965,805160,0.013419333,0.80516,497.0
966,805992,0.0134332,0.805992,482.0
967,806824,0.013447067,0.806824,518.0
968,807660,0.013461,0.80766,489.0
969,808492,0.013474867,0.808492,480.0
970,809324,0.013488733,0.809324,551.0
971,810160,0.013502667,0.81016,573.0
972,810992,0.013516533,0.810992,521.0
973,811828,0.013530467,0.811828,505.0
974,812660,0.013544333,0.81266,562.0
975,813492,0.0135582,0.813492,565.0
976,814328,0.013572133,0.814328,523.0
977,815160,0.013586,0.81516,523.0
978,815992,0.013599867,0.815992,469.0
979,816828,0.0136138,0.816828,474.0
980,817660,0.013627667,0.81766,496.0
981,818492,0.013641533,0.818492,494.0
982,819328,0.013655467,0.819328,487.0
983,820160,0.013669333,0.82016,519.0
984,820992,0.0136832,0.820992,576.0
985,821828,0.013697133,0.821828,532.0
986,822660,0.013711,0.82266,522.0
987,823492,0.013724866,0.823492,538.0
988,824328,0.0137388,0.824328,514.0
989,825160,0.013752666,0.82516,512.0
990,825992,0.013766534,0.825992,536.0
991,826828,0.013780466,0.826828,561.0
992,827660,0.013794334,0.82766,533.0
993,828492,0.0138082,0.828492,488.0
994,829328,0.013822134,0.829328,507.0
995,830160,0.013836,0.83016,491.0
996,830992,0.013849867,0.830992,521.0
997,831828,0.0138638,0.831828,498.0
998,832660,0.013877667,0.83266,500.0
999,833492,0.013891533,0.833492,507.0
1000,834328,0.0139054665,0.834328,506.0
1001,835160,0.013919333,0.83516,532.0
1002,835992,0.0139332,0.835992,504.0
1003,836828,0.013947133,0.836828,481.0
1004,837660,0.013961,0.83766,507.0
1005,838492,0.013974867,0.838492,527.0
1006,839328,0.0139888,0.839328,510.0
1007,840160,0.014002667,0.84016,531.0
1008,840996,0.0140166,0.840996,567.0
1009,841828,0.014030467,0.841828,540.0
1010,842660,0.014044333,0.84266,509.0
1011,843496,0.014058267,0.843496,527.0
1012,844328,0.014072133,0.844328,519.0
1013,845160,0.014086,0.84516,513.0
1014,845996,0.014099933,0.845996,508.0
1015,846828,0.0141138,0.846828,519.0
1016,847660,0.014127667,0.84766,489.0
1017,848496,0.0141416,0.848496,480.0
1018,849328,0.014155467,0.849328,493.0
1019,850160,0.0141693335,0.85016,467.0
1020,850996,0.014183267,0.850996,509.0
1021,851828,0.0141971335,0.851828,509.0
1022,852660,0.014211,0.85266,546.0
1023,853496,0.014224933,0.853496,532.0
1024,854328,0.0142388,0.854328,519.0
1025,855160,0.014252666,0.85516,552.0
1026,855996,0.0142666,0.855996,535.0
1027,856828,0.014280466,0.856828,515.0
1028,857660,0.014294334,0.85766,507.0
1029,858496,0.014308266,0.858496,506.0
1030,859328,0.014322134,0.859328,474.0
1031,860168,0.014336133,0.860168,479.0
1032,860996,0.014349934,0.860996,558.0
1033,861828,0.0143638,0.861828,567.0
1034,862660,0.014377667,0.86266,518.0
1035,863496,0.0143916,0.863496,507.0
1036,864328,0.014405467,0.864328,458.0
1037,865160,0.014419333,0.86516,451.0
1038,865996,0.014433267,0.865996,487.0
1039,866828,0.014447133,0.866828,549.0
1040,867664,0.014461067,0.867664,518.0
1041,868496,0.014474933,0.868496,478.0
1042,869328,0.0144888,0.869328,512.0
1043,870164,0.014502733,0.870164,485.0
1044,870996,0.0145166,0.870996,502.0
1045,871828,0.014530467,0.871828,543.0
1046,872664,0.0145444,0.872664,554.0
1047,873496,0.014558267,0.873496,569.0
1048,874328,0.014572133,0.874328,544.0
1049,875164,0.014586067,0.875164,534.0
1050,875996,0.014599933,0.875996,480.0
1051,876828,0.0146138,0.876828,517.0
1052,877664,0.014627733,0.877664,533.0
1053,878496,0.0146416,0.878496,530.0
1054,879328,0.014655467,0.879328,503.0
1055,880164,0.0146694,0.880164,424.0
1056,880996,0.014683267,0.880996,463.0
1057,881828,0.014697134,0.881828,525.0
1058,882664,0.014711067,0.882664,507.0
1059,883496,0.014724934,0.883496,524.0
1060,884328,0.0147388,0.884328,536.0
1061,885164,0.0147527335,0.885164,505.0
1062,885996,0.0147666,0.885996,469.0
1063,886828,0.014780466,0.886828,502.0
1064,887664,0.0147944,0.887664,571.0
1065,888496,0.014808266,0.888496,549.0
1066,889328,0.014822133,0.889328,528.0
1067,890164,0.014836066,0.890164,508.0
1068,890996,0.014849934,0.890996,485.0
1069,891832,0.014863866,0.891832,491.0
1070,892664,0.014877734,0.892664,508.0
1071,893496,0.0148916,0.893496,521.0
1072,894332,0.014905534,0.894332,528.0
1073,895164,0.0149194,0.895164,501.0
1074,895996,0.014933267,0.895996,485.0
1075,896832,0.0149472,0.896832,489.0
1076,897664,0.014961067,0.897664,494.0
1077,898496,0.014974933,0.898496,489.0
1078,899332,0.014988867,0.899332,549.0
1079,900164,0.015002733,0.900164,539.0
1080,900996,0.0150166,0.900996,481.0
1081,901832,0.015030533,0.901832,497.0
1082,902664,0.0150444,0.902664,550.0
1083,903496,0.015058267,0.903496,549.0
1084,904332,0.0150722,0.904332,552.0
1085,905164,0.015086067,0.905164,558.0
1086,905996,0.015099933,0.905996,521.0
1087,906832,0.015113867,0.906832,474.0
1088,907664,0.015127733,0.907664,515.0
1089,908496,0.0151416,0.908496,504.0
1090,909332,0.015155533,0.909332,496.0
1091,910164,0.0151694,0.910164,483.0
1092,910996,0.015183266,0.910996,489.0
1093,911832,0.0151972,0.911832,486.0
1094,912664,0.015211066,0.912664,468.0
1095,913496,0.015224934,0.913496,531.0
1096,914332,0.015238866,0.914332,561.0
1097,915164,0.015252734,0.915164,545.0
1098,915996,0.0152666,0.915996,502.0
1099,916832,0.015280534,0.916832,487.0
1100,917664,0.0152944,0.917664,534.0
1101,918496,0.0153082665,0.918496,528.0
1102,919332,0.0153222,0.919332,527.0
1103,920164,0.0153360665,0.920164,537.0
1104,921000,0.01535,0.921,488.0
1105,921832,0.015363866,0.921832,489.0
1106,922664,0.015377733,0.922664,532.0
1107,923500,0.015391666,0.9235,565.0
1108,924332,0.015405533,0.924332,516.0
1109,925164,0.0154194,0.925164,522.0
1110,926000,0.015433333,0.926,535.0
1111,926832,0.0154472,0.926832,470.0
1112,927664,0.015461067,0.927664,483.0
1113,928500,0.015475,0.9285,508.0
1114,929332,0.015488867,0.929332,497.0
1115,930164,0.015502733,0.930164,512.0
1116,931000,0.015516667,0.931,526.0
1117,931832,0.015530533,0.931832,529.0
1118,932664,0.0155444,0.932664,462.0
1119,933500,0.015558333,0.9335,496.0
1120,934332,0.0155722,0.934332,507.0
1121,935164,0.015586067,0.935164,556.0
1122,936000,0.0156,0.936,560.0
1123,936832,0.015613867,0.936832,501.0
1124,937664,0.015627733,0.937664,496.0
1125,938500,0.015641667,0.9385,526.0
1126,939332,0.015655532,0.939332,554.0
1127,940164,0.0156694,0.940164,539.0
1128,941000,0.015683332,0.941,484.0
1129,941832,0.0156972,0.941832,490.0
1130,942664,0.015711067,0.942664,496.0
1131,943500,0.015725,0.9435,494.0
1132,944332,0.015738867,0.944332,534.0
1133,945168,0.0157528,0.945168,507.0
1134,946000,0.015766667,0.946,500.0
1135,946832,0.015780533,0.946832,497.0
1136,947668,0.015794467,0.947668,491.0
1137,948500,0.015808333,0.9485,517.0
1138,949332,0.0158222,0.949332,523.0
1139,950168,0.015836133,0.950168,524.0
1140,951000,0.01585,0.951,482.0
1141,951832,0.015863867,0.951832,493.0
1142,952668,0.0158778,0.952668,531.0
1143,953500,0.015891667,0.9535,500.0
1144,954332,0.015905533,0.954332,534.0
1145,955168,0.015919467,0.955168,548.0
1146,956000,0.015933333,0.956,546.0
1147,956832,0.0159472,0.956832,513.0
1148,957668,0.015961133,0.957668,464.0
1149,958500,0.015975,0.9585,434.0
1150,959332,0.015988866,0.959332,465.0
1151,960168,0.0160028,0.960168,498.0
1152,961000,0.016016666,0.961,509.0
1153,961832,0.016030533,0.961832,522.0
1154,962668,0.016044466,0.962668,529.0
1155,963500,0.016058333,0.9635,546.0
1156,964332,0.0160722,0.964332,566.0
1157,965168,0.016086133,0.965168,546.0
1158,966000,0.0161,0.966,554.0
1159,966832,0.016113866,0.966832,545.0
1160,967668,0.0161278,0.967668,498.0
1161,968500,0.016141666,0.9685,500.0
1162,969332,0.016155533,0.969332,497.0
1163,970168,0.016169466,0.970168,466.0
1164,971000,0.016183333,0.971,495.0
1165,971836,0.016197266,0.971836,491.0
1166,972668,0.016211133,0.972668,464.0
1167,973500,0.016225,0.9735,498.0
1168,974336,0.016238933,0.974336,507.0
1169,975168,0.0162528,0.975168,567.0
1170,976000,0.016266666,0.976,551.0
1171,976836,0.0162806,0.976836,552.0
1172,977668,0.016294466,0.977668,546.0
1173,978500,0.016308334,0.9785,536.0
1174,979336,0.016322266,0.979336,522.0
1175,980168,0.016336134,0.980168,503.0
1176,981000,0.01635,0.981,475.0
1177,981836,0.016363934,0.981836,494.0
1178,982668,0.0163778,0.982668,483.0
1179,983500,0.016391667,0.9835,472.0
1180,984336,0.0164056,0.984336,488.0
1181,985168,0.016419467,0.985168,467.0
1182,986000,0.016433334,0.986,466.0
1183,986836,0.016447267,0.986836,514.0
1184,987668,0.016461134,0.987668,536.0
1185,988500,0.016475,0.9885,478.0
1186,989336,0.016488934,0.989336,543.0
1187,990168,0.0165028,0.990168,520.0
1188,991000,0.016516667,0.991,560.0
1189,991836,0.0165306,0.991836,567.0
1190,992668,0.016544467,0.992668,554.0
1191,993500,0.016558334,0.9935,555.0
1192,994336,0.016572267,0.994336,524.0
1193,995168,0.016586134,0.995168,552.0
1194,996000,0.0166,0.996,539.0
1195,996836,0.016613934,0.996836,501.0
1196,997668,0.0166278,0.997668,493.0
1197,998500,0.016641667,0.9985,479.0
1198,999336,0.0166556,0.999336,472.0
1199,1000168,0.016669467,1.000168,487.0
1200,1001004,0.0166834,1.001004,475.0
1201,1001836,0.016697267,1.001836,479.0
1202,1002668,0.016711133,1.002668,494.0
1203,1003504,0.016725067,1.003504,497.0
1204,1004336,0.016738933,1.004336,446.0
1205,1005168,0.0167528,1.005168,532.0
1206,1006004,0.016766733,1.006004,524.0
1207,1006836,0.0167806,1.006836,536.0
1208,1007668,0.016794467,1.007668,572.0
1209,1008504,0.0168084,1.008504,513.0
1210,1009336,0.016822267,1.009336,533.0
1211,1010168,0.016836133,1.010168,526.0
1212,1011004,0.016850067,1.011004,552.0
1213,1011836,0.016863933,1.011836,557.0
1214,1012668,0.0168778,1.012668,537.0
1215,1013504,0.016891733,1.013504,552.0
1216,1014336,0.0169056,1.014336,505.0
1217,1015168,0.016919466,1.015168,505.0
1218,1016004,0.0169334,1.016004,530.0
1219,1016840,0.016947333,1.01684,499.0
1220,1017668,0.016961133,1.017668,522.0
1221,1018504,0.016975068,1.018504,515.0
1222,1019336,0.016988933,1.019336,487.0
1223,1020168,0.0170028,1.020168,434.0
1224,1021004,0.017016733,1.021004,454.0
1225,1021836,0.0170306,1.021836,488.0
1226,1022668,0.017044466,1.022668,457.0
1227,1023504,0.0170584,1.023504,534.0
1228,1024336,0.017072266,1.024336,507.0
1229,1025168,0.017086133,1.025168,496.0
1230,1026004,0.017100066,1.026004,546.0
1231,1026836,0.017113933,1.026836,533.0
1232,1027672,0.017127866,1.027672,560.0
1233,1028504,0.017141733,1.028504,549.0
1234,1029336,0.0171556,1.029336,503.0
1235,1030172,0.017169533,1.030172,509.0
1236,1031004,0.0171834,1.031004,501.0
1237,1031836,0.017197266,1.031836,544.0
1238,1032672,0.0172112,1.032672,541.0
1239,1033504,0.017225066,1.033504,579.0
1240,1034336,0.017238934,1.034336,546.0
1241,1035172,0.017252866,1.035172,505.0
1242,1036004,0.017266734,1.036004,459.0
1243,1036836,0.0172806,1.036836,514.0
1244,1037672,0.017294534,1.037672,531.0
1245,1038504,0.0173084,1.038504,489.0
1246,1039336,0.017322266,1.039336,492.0
1247,1040172,0.0173362,1.040172,486.0
1248,1041004,0.017350066,1.041004,459.0
1249,1041836,0.017363934,1.041836,524.0
1250,1042672,0.017377866,1.042672,487.0
1251,1043504,0.017391734,1.043504,532.0
1252,1044336,0.0174056,1.044336,550.0
1253,1045172,0.017419534,1.045172,518.0
1254,1046004,0.0174334,1.046004,528.0
1255,1046836,0.017447267,1.046836,467.0
1256,1047672,0.0174612,1.047672,507.0
1257,1048504,0.017475067,1.048504,510.0
1258,1049336,0.017488934,1.049336,511.0
1259,1050172,0.017502867,1.050172,522.0
1260,1051004,0.017516734,1.051004,503.0
1261,1051836,0.0175306,1.051836,497.0
1262,1052672,0.017544534,1.052672,552.0
1263,1053504,0.0175584,1.053504,563.0
1264,1054340,0.017572334,1.05434,538.0
1265,1055172,0.0175862,1.055172,534.0
1266,1056004,0.017600067,1.056004,525.0
1267,1056840,0.017614,1.05684,491.0
1268,1057672,0.017627867,1.057672,534.0
1269,1058504,0.017641732,1.058504,544.0
1270,1059340,0.017655667,1.05934,515.0
1271,1060172,0.017669532,1.060172,510.0
1272,1061004,0.0176834,1.061004,490.0
1273,1061840,0.017697332,1.06184,493.0
1274,1062672,0.0177112,1.062672,466.0
1275,1063504,0.017725067,1.063504,500.0
1276,1064340,0.017739,1.06434,483.0
1277,1065172,0.017752867,1.065172,452.0
1278,1066004,0.017766733,1.066004,473.0
1279,1066840,0.017780667,1.06684,480.0
1280,1067672,0.017794533,1.067672,516.0
1281,1068504,0.0178084,1.068504,552.0
1282,1069340,0.017822333,1.06934,557.0
1283,1070172,0.0178362,1.070172,544.0
1284,1071004,0.017850067,1.071004,503.0
1285,1071840,0.017864,1.07184,500.0
1286,1072672,0.017877867,1.072672,536.0
1287,1073504,0.017891733,1.073504,550.0
1288,1074340,0.017905667,1.07434,537.0
1289,1075172,0.017919533,1.075172,535.0
1290,1076004,0.0179334,1.076004,545.0
1291,1076840,0.017947333,1.07684,502.0
1292,1077672,0.0179612,1.077672,507.0
1293,1078504,0.017975066,1.078504,543.0
1294,1079340,0.017989,1.07934,511.0
1295,1080172,0.018002866,1.080172,497.0
1296,1081008,0.0180168,1.081008,478.0
1297,1081840,0.018030666,1.08184,450.0
1298,1082672,0.018044533,1.082672,463.0
1299,1083508,0.018058466,1.083508,478.0
1300,1084340,0.018072333,1.08434,527.0
1301,1085172,0.0180862,1.085172,520.0
1302,1086008,0.018100133,1.086008,497.0
1303,1086840,0.018114,1.08684,528.0
1304,1087672,0.018127866,1.087672,509.0
1305,1088508,0.0181418,1.088508,513.0
1306,1089340,0.018155666,1.08934,528.0
1307,1090172,0.018169533,1.090172,546.0
1308,1091008,0.018183466,1.091008,562.0
1309,1091840,0.018197333,1.09184,529.0
1310,1092672,0.0182112,1.092672,509.0
1311,1093508,0.018225133,1.093508,526.0
1312,1094340,0.018239,1.09434,547.0
1313,1095172,0.018252866,1.095172,547.0
1314,1096008,0.0182668,1.096008,524.0
1315,1096840,0.018280666,1.09684,491.0
1316,1097672,0.018294534,1.097672,456.0
1317,1098508,0.018308466,1.098508,463.0
1318,1099340,0.018322334,1.09934,498.0
1319,1100172,0.0183362,1.100172,501.0
1320,1101008,0.018350134,1.101008,499.0
1321,1101840,0.018364,1.10184,493.0
1322,1102672,0.018377867,1.102672,491.0
1323,1103508,0.0183918,1.103508,490.0
1324,1104340,0.018405667,1.10434,509.0
1325,1105172,0.018419534,1.105172,542.0
1326,1106008,0.018433467,1.106008,523.0
1327,1106840,0.018447334,1.10684,522.0
1328,1107676,0.018461267,1.107676,507.0
1329,1108508,0.018475134,1.108508,505.0
1330,1109340,0.018489,1.10934,527.0
1331,1110176,0.018502934,1.110176,513.0
1332,1111008,0.0185168,1.111008,536.0
1333,1111840,0.018530667,1.11184,512.0
1334,1112676,0.0185446,1.112676,502.0
1335,1113508,0.018558467,1.113508,475.0
1336,1114340,0.018572334,1.11434,497.0
1337,1115176,0.018586267,1.115176,560.0
1338,1116008,0.018600134,1.116008,538.0
1339,1116840,0.018614,1.11684,537.0
1340,1117676,0.018627934,1.117676,505.0
1341,1118508,0.0186418,1.118508,505.0
1342,1119340,0.018655667,1.11934,505.0
1343,1120176,0.0186696,1.120176,522.0
1344,1121008,0.018683467,1.121008,505.0
1345,1121840,0.018697333,1.12184,509.0
1346,1122676,0.018711267,1.122676,486.0
1347,1123508,0.018725133,1.123508,470.0
1348,1124340,0.018739,1.12434,484.0
1349,1125176,0.018752933,1.125176,541.0
1350,1126008,0.0187668,1.126008,519.0
1351,1126840,0.018780667,1.12684,525.0
1352,1127676,0.0187946,1.127676,533.0
1353,1128508,0.018808467,1.128508,524.0
1354,1129340,0.018822333,1.12934,524.0
1355,1130176,0.018836267,1.130176,519.0
1356,1131008,0.018850133,1.131008,527.0
1357,1131840,0.018864,1.13184,515.0
1358,1132676,0.018877933,1.132676,520.0
1359,1133508,0.0188918,1.133508,509.0
1360,1134344,0.018905733,1.134344,481.0
1361,1135176,0.0189196,1.135176,518.0
1362,1136008,0.018933468,1.136008,543.0
1363,1136844,0.0189474,1.136844,545.0
1364,1137676,0.018961268,1.137676,536.0
1365,1138508,0.018975133,1.138508,526.0
1366,1139344,0.018989068,1.139344,524.0
1367,1140176,0.019002933,1.140176,516.0
1368,1141008,0.0190168,1.141008,523.0
1369,1141844,0.019030733,1.141844,509.0
1370,1142676,0.0190446,1.142676,475.0
1371,1143508,0.019058466,1.143508,498.0
1372,1144344,0.0190724,1.144344,484.0
1373,1145176,0.019086266,1.145176,486.0
1374,1146008,0.019100133,1.146008,500.0
1375,1146844,0.019114066,1.146844,513.0
1376,1147676,0.019127933,1.147676,558.0
1377,1148508,0.0191418,1.148508,485.0
1378,1149344,0.019155733,1.149344,479.0
1379,1150176,0.0191696,1.150176,494.0
1380,1151008,0.019183466,1.151008,518.0
1381,1151844,0.0191974,1.151844,527.0
1382,1152676,0.019211266,1.152676,536.0
1383,1153508,0.019225134,1.153508,531.0
1384,1154344,0.019239066,1.154344,513.0
1385,1155176,0.019252934,1.155176,501.0
1386,1156008,0.0192668,1.156008,531.0
1387,1156844,0.019280734,1.156844,524.0
1388,1157676,0.0192946,1.157676,515.0
1389,1158512,0.019308534,1.158512,523.0
1390,1159344,0.0193224,1.159344,491.0
1391,1160176,0.019336266,1.160176,492.0
1392,1161012,0.0193502,1.161012,514.0
1393,1161844,0.019364066,1.161844,549.0
1394,1162676,0.019377934,1.162676,520.0
1395,1163512,0.019391866,1.163512,526.0
1396,1164344,0.019405734,1.164344,472.0
1397,1165176,0.0194196,1.165176,497.0
1398,1166012,0.019433534,1.166012,503.0
1399,1166844,0.0194474,1.166844,502.0
1400,1167676,0.019461267,1.167676,554.0
1401,1168512,0.0194752,1.168512,523.0
1402,1169344,0.019489067,1.169344,508.0
1403,1170176,0.019502934,1.170176,513.0
1404,1171012,0.019516867,1.171012,535.0
1405,1171844,0.019530734,1.171844,554.0
1406,1172676,0.0195446,1.172676,528.0
1407,1173512,0.019558534,1.173512,515.0
1408,1174344,0.0195724,1.174344,498.0
1409,1175176,0.019586267,1.175176,465.0
1410,1176012,0.0196002,1.176012,507.0
1411,1176844,0.019614067,1.176844,507.0
1412,1177676,0.019627932,1.177676,524.0
1413,1178512,0.019641867,1.178512,536.0
1414,1179344,0.019655732,1.179344,521.0
1415,1180176,0.0196696,1.180176,519.0
1416,1181012,0.019683532,1.181012,523.0
1417,1181844,0.0196974,1.181844,545.0
1418,1182676,0.019711267,1.182676,527.0
1419,1183512,0.0197252,1.183512,500.0
1420,1184344,0.019739067,1.184344,519.0
1421,1185176,0.019752933,1.185176,460.0
1422,1186012,0.019766867,1.186012,499.0
1423,1186844,0.019780733,1.186844,515.0
1424,1187680,0.019794667,1.18768,514.0
1425,1188512,0.019808533,1.188512,517.0
1426,1189344,0.0198224,1.189344,489.0
1427,1190180,0.019836333,1.19018,463.0
1428,1191012,0.0198502,1.191012,475.0
1429,1191844,0.019864067,1.191844,499.0
1430,1192680,0.019878,1.19268,526.0
1431,1193512,0.019891867,1.193512,532.0
1432,1194344,0.019905733,1.194344,537.0
1433,1195180,0.019919667,1.19518,543.0
1434,1196012,0.019933533,1.196012,531.0
1435,1196844,0.0199474,1.196844,546.0
1436,1197680,0.019961333,1.19768,550.0
1437,1198512,0.0199752,1.198512,538.0
1438,1199344,0.019989066,1.199344,547.0
1439,1200180,0.020003,1.20018,517.0
1440,1201012,0.020016866,1.201012,483.0
1441,1201844,0.020030733,1.201844,509.0
1442,1202680,0.020044666,1.20268,494.0
1443,1203512,0.020058533,1.203512,506.0
1444,1204344,0.0200724,1.204344,518.0
1445,1205180,0.020086333,1.20518,493.0
1446,1206012,0.0201002,1.206012,468.0
1447,1206844,0.020114066,1.206844,497.0
1448,1207680,0.020128,1.20768,503.0
1449,1208512,0.020141866,1.208512,507.0
1450,1209352,0.020155868,1.209352,512.0
1451,1210180,0.020169666,1.21018,531.0
1452,1211012,0.020183533,1.211012,537.0
1453,1211844,0.0201974,1.211844,509.0
1454,1212680,0.020211333,1.21268,537.0
1455,1213512,0.0202252,1.213512,533.0
1456,1214348,0.020239133,1.214348,540.0
1457,1215180,0.020253,1.21518,537.0
1458,1216012,0.020266866,1.216012,505.0
1459,1216848,0.0202808,1.216848,515.0
1460,1217680,0.020294666,1.21768,497.0
1461,1218512,0.020308534,1.218512,512.0
1462,1219348,0.020322466,1.219348,505.0
1463,1220180,0.020336334,1.22018,518.0
1464,1221012,0.0203502,1.221012,513.0
1465,1221848,0.020364134,1.221848,514.0
1466,1222680,0.020378,1.22268,534.0
1467,1223512,0.020391867,1.223512,553.0
1468,1224348,0.0204058,1.224348,525.0
1469,1225180,0.020419667,1.22518,494.0
1470,1226012,0.020433534,1.226012,451.0
1471,1226848,0.020447467,1.226848,477.0
1472,1227680,0.020461334,1.22768,515.0
1473,1228512,0.0204752,1.228512,538.0
1474,1229348,0.020489134,1.229348,548.0
1475,1230180,0.020503,1.23018,513.0
1476,1231012,0.020516867,1.231012,535.0
1477,1231848,0.0205308,1.231848,527.0
1478,1232680,0.020544667,1.23268,529.0
1479,1233512,0.020558534,1.233512,493.0
1480,1234348,0.020572467,1.234348,504.0
1481,1235180,0.020586334,1.23518,478.0
1482,1236012,0.0206002,1.236012,461.0
1483,1236848,0.020614134,1.236848,464.0
1484,1237680,0.020628,1.23768,504.0
1485,1238512,0.020641867,1.238512,513.0
1486,1239348,0.0206558,1.239348,555.0
1487,1240180,0.020669667,1.24018,563.0
1488,1241016,0.0206836,1.241016,560.0
1489,1241848,0.020697467,1.241848,528.0
1490,1242680,0.020711333,1.24268,514.0
1491,1243516,0.020725267,1.243516,516.0
1492,1244348,0.020739133,1.244348,512.0
1493,1245180,0.020753,1.24518,544.0
1494,1246016,0.020766933,1.246016,506.0
1495,1246848,0.0207808,1.246848,486.0
1496,1247680,0.020794667,1.24768,491.0
1497,1248516,0.0208086,1.248516,502.0
1498,1249348,0.020822467,1.249348,495.0
1499,1250180,0.020836333,1.25018,473.0
1500,1251016,0.020850267,1.251016,467.0
1501,1251848,0.020864133,1.251848,495.0
1502,1252680,0.020878,1.25268,503.0
1503,1253516,0.020891933,1.253516,519.0
1504,1254348,0.0209058,1.254348,519.0
1505,1255180,0.020919668,1.25518,542.0
1506,1256016,0.0209336,1.256016,554.0
1507,1256848,0.020947468,1.256848,527.0
1508,1257680,0.020961333,1.25768,473.0
1509,1258516,0.020975268,1.258516,505.0
1510,1259348,0.020989133,1.259348,527.0
1511,1260180,0.021003,1.26018,510.0
1512,1261016,0.021016933,1.261016,519.0
1513,1261848,0.0210308,1.261848,510.0
1514,1262680,0.021044666,1.26268,543.0
1515,1263516,0.0210586,1.263516,511.0
1516,1264348,0.021072466,1.264348,466.0
1517,1265180,0.021086333,1.26518,517.0
1518,1266016,0.021100266,1.266016,557.0
1519,1266848,0.021114133,1.266848,525.0
1520,1267684,0.021128066,1.267684,494.0
1521,1268516,0.021141933,1.268516,425.0
1522,1269348,0.0211558,1.269348,430.0
1523,1270184,0.021169733,1.270184,447.0
1524,1271016,0.0211836,1.271016,505.0
1525,1271848,0.021197466,1.271848,572.0
1526,1272684,0.0212114,1.272684,572.0
1527,1273516,0.021225266,1.273516,577.0
1528,1274348,0.021239134,1.274348,542.0
1529,1275184,0.021253066,1.275184,506.0
1530,1276016,0.021266934,1.276016,487.0
1531,1276848,0.0212808,1.276848,489.0
1532,1277684,0.021294734,1.277684,480.0
1533,1278516,0.0213086,1.278516,449.0
1534,1279348,0.021322466,1.279348,456.0
1535,1280184,0.0213364,1.280184,493.0
1536,1281016,0.021350266,1.281016,551.0
1537,1281848,0.021364134,1.281848,600.0
1538,1282684,0.021378066,1.282684,583.0
1539,1283516,0.021391934,1.283516,586.0
1540,1284348,0.0214058,1.284348,548.0
1541,1285184,0.021419734,1.285184,538.0
1542,1286016,0.0214336,1.286016,522.0
1543,1286848,0.021447467,1.286848,497.0
1544,1287684,0.0214614,1.287684,469.0
1545,1288516,0.021475267,1.288516,448.0
1546,1289348,0.021489134,1.289348,436.0
1547,1290184,0.021503067,1.290184,418.0
1548,1291016,0.021516934,1.291016,435.0
1549,1291848,0.0215308,1.291848,516.0
1550,1292684,0.021544734,1.292684,555.0
1551,1293516,0.0215586,1.293516,556.0
1552,1294352,0.021572534,1.294352,552.0
1553,1295184,0.0215864,1.295184,577.0
1554,1296016,0.021600267,1.296016,597.0
1555,1296852,0.0216142,1.296852,584.0
1556,1297684,0.021628067,1.297684,561.0
1557,1298516,0.021641932,1.298516,529.0
1558,1299352,0.021655867,1.299352,513.0
1559,1300184,0.021669732,1.300184,485.0
1560,1301016,0.0216836,1.301016,423.0
1561,1301852,0.021697534,1.301852,440.0
1562,1302684,0.0217114,1.302684,471.0
1563,1303516,0.021725267,1.303516,479.0
1564,1304352,0.0217392,1.304352,490.0
1565,1305184,0.021753067,1.305184,463.0
1566,1306016,0.021766933,1.306016,501.0
1567,1306852,0.021780867,1.306852,511.0
1568,1307684,0.021794733,1.307684,523.0
1569,1308516,0.0218086,1.308516,525.0
1570,1309352,0.021822533,1.309352,533.0
1571,1310184,0.0218364,1.310184,555.0
1572,1311016,0.021850267,1.311016,548.0
1573,1311852,0.0218642,1.311852,539.0
1574,1312684,0.021878067,1.312684,566.0
1575,1313516,0.021891933,1.313516,545.0
1576,1314352,0.021905867,1.314352,533.0
1577,1315184,0.021919733,1.315184,501.0
1578,1316016,0.0219336,1.316016,506.0
1579,1316852,0.021947533,1.316852,519.0
1580,1317684,0.0219614,1.317684,514.0
1581,1318516,0.021975266,1.318516,484.0
1582,1319352,0.0219892,1.319352,458.0
1583,1320184,0.022003066,1.320184,457.0
1584,1321020,0.022017,1.32102,478.0
1585,1321852,0.022030866,1.321852,505.0
1586,1322684,0.022044733,1.322684,516.0
1587,1323520,0.022058666,1.32352,539.0
1588,1324352,0.022072533,1.324352,555.0
1589,1325184,0.0220864,1.325184,549.0
1590,1326020,0.022100333,1.32602,515.0
1591,1326852,0.0221142,1.326852,505.0
1592,1327684,0.022128066,1.327684,539.0
1593,1328520,0.022142,1.32852,518.0
1594,1329352,0.022155866,1.329352,494.0
1595,1330184,0.022169733,1.330184,525.0
1596,1331020,0.022183666,1.33102,528.0
1597,1331852,0.022197533,1.331852,523.0
1598,1332684,0.0222114,1.332684,542.0
1599,1333520,0.022225333,1.33352,511.0
1600,1334352,0.0222392,1.334352,536.0
1601,1335184,0.022253066,1.335184,527.0
1602,1336020,0.022267,1.33602,512.0
1603,1336852,0.022280866,1.336852,514.0
1604,1337684,0.022294734,1.337684,528.0
1605,1338520,0.022308666,1.33852,527.0
1606,1339352,0.022322534,1.339352,455.0
1607,1340184,0.0223364,1.340184,444.0
1608,1341020,0.022350334,1.34102,454.0
1609,1341852,0.0223642,1.341852,444.0
1610,1342684,0.022378067,1.342684,450.0
1611,1343520,0.022392,1.34352,511.0
1612,1344352,0.022405867,1.344352,539.0
1613,1345184,0.022419734,1.345184,581.0
1614,1346020,0.022433667,1.34602,514.0
1615,1346852,0.022447534,1.346852,521.0
1616,1347688,0.022461466,1.347688,513.0
1617,1348520,0.022475334,1.34852,533.0
1618,1349352,0.0224892,1.349352,548.0
1619,1350188,0.022503134,1.350188,531.0
1620,1351020,0.022517,1.35102,542.0
1621,1351852,0.022530867,1.351852,527.0
1622,1352688,0.0225448,1.352688,548.0
1623,1353520,0.022558667,1.35352,558.0
1624,1354352,0.022572534,1.354352,521.0
1625,1355188,0.022586467,1.355188,498.0
1626,1356020,0.022600334,1.35602,510.0
1627,1356852,0.0226142,1.356852,509.0
1628,1357688,0.022628134,1.357688,500.0
1629,1358520,0.022642,1.35852,494.0
1630,1359352,0.022655867,1.359352,467.0
1631,1360188,0.0226698,1.360188,450.0
1632,1361020,0.022683667,1.36102,490.0
1633,1361852,0.022697533,1.361852,477.0
1634,1362688,0.022711467,1.362688,494.0
1635,1363520,0.022725333,1.36352,511.0
1636,1364352,0.0227392,1.364352,524.0
1637,1365188,0.022753133,1.365188,522.0
1638,1366024,0.022767067,1.366024,518.0
1639,1366852,0.022780867,1.366852,535.0
1640,1367688,0.0227948,1.367688,531.0
1641,1368520,0.022808667,1.36852,521.0
1642,1369352,0.022822533,1.369352,530.0
1643,1370188,0.022836467,1.370188,480.0
1644,1371020,0.022850333,1.37102,489.0
1645,1371852,0.0228642,1.371852,481.0
1646,1372688,0.022878133,1.372688,509.0
1647,1373520,0.022892,1.37352,525.0
1648,1374356,0.022905933,1.374356,518.0
1649,1375188,0.0229198,1.375188,530.0
1650,1376020,0.022933668,1.37602,517.0
1651,1376856,0.0229476,1.376856,541.0
1652,1377688,0.022961468,1.377688,560.0
1653,1378520,0.022975333,1.37852,527.0
1654,1379356,0.022989267,1.379356,520.0
1655,1380188,0.023003133,1.380188,491.0
1656,1381020,0.023017,1.38102,488.0
1657,1381856,0.023030933,1.381856,469.0
1658,1382688,0.0230448,1.382688,458.0
1659,1383520,0.023058666,1.38352,482.0
1660,1384356,0.0230726,1.384356,515.0
1661,1385188,0.023086466,1.385188,539.0
1662,1386020,0.023100333,1.38602,547.0
1663,1386856,0.023114266,1.386856,549.0
1664,1387688,0.023128133,1.387688,543.0
1665,1388520,0.023142,1.38852,524.0
1666,1389356,0.023155933,1.389356,530.0
1667,1390188,0.0231698,1.390188,527.0
1668,1391020,0.023183666,1.39102,517.0
1669,1391856,0.0231976,1.391856,510.0
1670,1392688,0.023211466,1.392688,513.0
1671,1393520,0.023225334,1.39352,476.0
1672,1394356,0.023239266,1.394356,498.0
1673,1395188,0.023253134,1.395188,547.0
1674,1396020,0.023267,1.39602,554.0
1675,1396856,0.023280933,1.396856,518.0
1676,1397688,0.0232948,1.397688,497.0
1677,1398524,0.023308733,1.398524,523.0
1678,1399356,0.0233226,1.399356,536.0
1679,1400188,0.023336466,1.400188,522.0
1680,1401024,0.0233504,1.401024,509.0
1681,1401856,0.023364266,1.401856,478.0
1682,1402688,0.023378134,1.402688,469.0
1683,1403524,0.023392066,1.403524,485.0
1684,1404356,0.023405934,1.404356,493.0
1685,1405188,0.0234198,1.405188,519.0
1686,1406024,0.023433734,1.406024,540.0
1687,1406856,0.0234476,1.406856,535.0
1688,1407688,0.023461467,1.407688,520.0
1689,1408524,0.0234754,1.408524,508.0
1690,1409356,0.023489267,1.409356,488.0
1691,1410188,0.023503134,1.410188,530.0
1692,1411024,0.023517067,1.411024,519.0
1693,1411856,0.023530934,1.411856,529.0
1694,1412688,0.0235448,1.412688,495.0
1695,1413524,0.023558734,1.413524,505.0
1696,1414356,0.0235726,1.414356,524.0
1697,1415188,0.023586467,1.415188,491.0
1698,1416024,0.0236004,1.416024,528.0
1699,1416856,0.023614267,1.416856,484.0
1700,1417688,0.023628132,1.417688,533.0
1701,1418524,0.023642067,1.418524,531.0
1702,1419356,0.023655934,1.419356,501.0
1703,1420188,0.0236698,1.420188,505.0
1704,1421024,0.023683734,1.421024,511.0
1705,1421856,0.0236976,1.421856,504.0
1706,1422688,0.023711467,1.422688,513.0
1707,1423524,0.0237254,1.423524,508.0
1708,1424356,0.023739267,1.424356,518.0
1709,1425192,0.0237532,1.425192,523.0
1710,1426024,0.023767067,1.426024,557.0
1711,1426856,0.023780933,1.426856,527.0
1712,1427692,0.023794867,1.427692,515.0
1713,1428524,0.023808733,1.428524,515.0
1714,1429356,0.0238226,1.429356,540.0
1715,1430192,0.023836533,1.430192,530.0
1716,1431024,0.0238504,1.431024,501.0
1717,1431856,0.023864267,1.431856,510.0
1718,1432692,0.0238782,1.432692,526.0
1719,1433524,0.023892067,1.433524,521.0
1720,1434356,0.023905933,1.434356,489.0
1721,1435192,0.023919867,1.435192,484.0
1722,1436024,0.023933733,1.436024,515.0
1723,1436856,0.0239476,1.436856,500.0
1724,1437692,0.023961533,1.437692,499.0
1725,1438524,0.0239754,1.438524,562.0
1726,1439356,0.023989266,1.439356,535.0
1727,1440192,0.0240032,1.440192,509.0
1728,1441024,0.024017066,1.441024,488.0
1729,1441856,0.024030933,1.441856,483.0
1730,1442692,0.024044866,1.442692,456.0
1731,1443524,0.024058733,1.443524,466.0
1732,1444356,0.0240726,1.444356,478.0
1733,1445192,0.024086533,1.445192,510.0
1734,1446024,0.0241004,1.446024,558.0
1735,1446856,0.024114266,1.446856,554.0
1736,1447692,0.0241282,1.447692,544.0
1737,1448524,0.024142066,1.448524,550.0
1738,1449356,0.024155933,1.449356,540.0
1739,1450192,0.024169866,1.450192,517.0
1740,1451024,0.024183733,1.451024,479.0
1741,1451860,0.024197666,1.45186,514.0
1742,1452692,0.024211533,1.452692,514.0
1743,1453524,0.0242254,1.453524,529.0
1744,1454360,0.024239333,1.45436,513.0
1745,1455192,0.0242532,1.455192,506.0
1746,1456024,0.024267066,1.456024,513.0
1747,1456860,0.024281,1.45686,527.0
1748,1457692,0.024294866,1.457692,518.0
1749,1458524,0.024308734,1.458524,494.0
1750,1459360,0.024322666,1.45936,507.0
1751,1460192,0.024336534,1.460192,518.0
1752,1461024,0.0243504,1.461024,509.0
1753,1461860,0.024364334,1.46186,497.0
1754,1462692,0.0243782,1.462692,484.0
1755,1463524,0.024392067,1.463524,478.0
1756,1464360,0.024406,1.46436,505.0
1757,1465192,0.024419867,1.465192,531.0
1758,1466024,0.024433734,1.466024,542.0
1759,1466860,0.024447666,1.46686,531.0
1760,1467692,0.024461534,1.467692,534.0
1761,1468524,0.0244754,1.468524,515.0
1762,1469360,0.024489334,1.46936,554.0
1763,1470192,0.0245032,1.470192,528.0
1764,1471024,0.024517067,1.471024,509.0
1765,1471860,0.024531,1.47186,503.0
1766,1472692,0.024544867,1.472692,496.0
1767,1473524,0.024558734,1.473524,503.0
1768,1474360,0.024572667,1.47436,472.0
1769,1475192,0.024586534,1.475192,495.0
1770,1476024,0.0246004,1.476024,479.0
1771,1476860,0.024614334,1.47686,503.0
1772,1477692,0.0246282,1.477692,526.0
1773,1478524,0.024642067,1.478524,502.0
1774,1479360,0.024656,1.47936,532.0
1775,1480192,0.024669867,1.480192,513.0
1776,1481028,0.0246838,1.481028,526.0
1777,1481860,0.024697667,1.48186,522.0
1778,1482692,0.024711533,1.482692,514.0
1779,1483528,0.024725467,1.483528,499.0
1780,1484360,0.024739332,1.48436,474.0
1781,1485192,0.0247532,1.485192,514.0
1782,1486028,0.024767132,1.486028,512.0
1783,1486860,0.024781,1.48686,556.0
1784,1487692,0.024794867,1.487692,546.0
1785,1488528,0.0248088,1.488528,517.0
1786,1489360,0.024822667,1.48936,503.0
1787,1490192,0.024836533,1.490192,509.0
1788,1491028,0.024850467,1.491028,525.0
1789,1491860,0.024864333,1.49186,529.0
1790,1492692,0.0248782,1.492692,520.0
1791,1493528,0.024892133,1.493528,528.0
1792,1494360,0.024906,1.49436,510.0
1793,1495192,0.024919868,1.495192,541.0
1794,1496028,0.0249338,1.496028,512.0
1795,1496860,0.024947667,1.49686,498.0
1796,1497692,0.024961533,1.497692,502.0
1797,1498528,0.024975467,1.498528,510.0
1798,1499360,0.024989333,1.49936,505.0
1799,1500192,0.0250032,1.500192,501.0
1800,1501028,0.025017133,1.501028,468.0
1801,1501860,0.025031,1.50186,461.0
1802,1502692,0.025044866,1.502692,484.0
1803,1503528,0.0250588,1.503528,533.0
1804,1504360,0.025072666,1.50436,491.0
1805,1505192,0.025086533,1.505192,479.0
1806,1506028,0.025100466,1.506028,521.0
1807,1506860,0.025114333,1.50686,551.0
1808,1507696,0.025128266,1.507696,575.0
1809,1508528,0.025142133,1.508528,562.0
1810,1509360,0.025156,1.50936,533.0
1811,1510196,0.025169933,1.510196,542.0
1812,1511028,0.0251838,1.511028,543.0
1813,1511860,0.025197666,1.51186,515.0
1814,1512696,0.0252116,1.512696,461.0
1815,1513528,0.025225466,1.513528,511.0
1816,1514360,0.025239334,1.51436,516.0
1817,1515196,0.025253266,1.515196,506.0
1818,1516028,0.025267133,1.516028,497.0
1819,1516860,0.025281,1.51686,464.0
1820,1517696,0.025294933,1.517696,487.0
1821,1518528,0.0253088,1.518528,483.0
1822,1519360,0.025322666,1.51936,502.0
1823,1520196,0.0253366,1.520196,501.0
1824,1521028,0.025350466,1.521028,543.0
1825,1521860,0.025364334,1.52186,534.0
1826,1522696,0.025378266,1.522696,506.0
1827,1523528,0.025392134,1.523528,511.0
1828,1524360,0.025406,1.52436,499.0
1829,1525196,0.025419934,1.525196,516.0
1830,1526028,0.0254338,1.526028,544.0
1831,1526860,0.025447667,1.52686,544.0
1832,1527696,0.0254616,1.527696,550.0
1833,1528528,0.025475467,1.528528,544.0
1834,1529360,0.025489334,1.52936,543.0
1835,1530196,0.025503267,1.530196,518.0
1836,1531028,0.025517134,1.531028,511.0
1837,1531860,0.025531,1.53186,511.0
1838,1532696,0.025544934,1.532696,480.0
1839,1533528,0.0255588,1.533528,514.0
1840,1534364,0.025572734,1.534364,516.0
1841,1535196,0.0255866,1.535196,507.0
1842,1536028,0.025600467,1.536028,511.0
1843,1536864,0.0256144,1.536864,502.0
1844,1537696,0.025628267,1.537696,518.0
1845,1538528,0.025642134,1.538528,501.0
1846,1539364,0.025656067,1.539364,511.0
1847,1540196,0.025669934,1.540196,495.0
1848,1541028,0.0256838,1.541028,519.0
1849,1541864,0.025697734,1.541864,522.0
1850,1542696,0.0257116,1.542696,504.0
1851,1543528,0.025725467,1.543528,523.0
1852,1544364,0.0257394,1.544364,540.0
1853,1545196,0.025753267,1.545196,513.0
1854,1546028,0.025767133,1.546028,520.0
1855,1546864,0.025781067,1.546864,530.0
1856,1547696,0.025794933,1.547696,539.0
1857,1548528,0.0258088,1.548528,543.0
1858,1549364,0.025822733,1.549364,548.0
1859,1550196,0.0258366,1.550196,497.0
1860,1551028,0.025850467,1.551028,459.0
1861,1551864,0.0258644,1.551864,503.0
1862,1552696,0.025878267,1.552696,488.0
1863,1553528,0.025892133,1.553528,473.0
1864,1554364,0.025906067,1.554364,492.0
1865,1555196,0.025919933,1.555196,499.0
1866,1556028,0.0259338,1.556028,509.0
1867,1556864,0.025947733,1.556864,505.0
1868,1557696,0.0259616,1.557696,506.0
1869,1558536,0.0259756,1.558536,521.0
1870,1559364,0.0259894,1.559364,522.0
1871,1560196,0.026003266,1.560196,540.0
1872,1561032,0.0260172,1.561032,519.0
1873,1561864,0.026031068,1.561864,543.0
1874,1562696,0.026044933,1.562696,505.0
1875,1563532,0.026058868,1.563532,493.0
1876,1564364,0.026072733,1.564364,503.0
1877,1565196,0.0260866,1.565196,520.0
1878,1566032,0.026100533,1.566032,492.0
1879,1566864,0.0261144,1.566864,487.0
1880,1567696,0.026128266,1.567696,517.0
1881,1568532,0.0261422,1.568532,547.0
1882,1569364,0.026156066,1.569364,557.0
1883,1570196,0.026169933,1.570196,517.0
1884,1571032,0.026183866,1.571032,480.0
1885,1571864,0.026197733,1.571864,521.0
1886,1572696,0.0262116,1.572696,558.0
1887,1573532,0.026225533,1.573532,511.0
1888,1574364,0.0262394,1.574364,492.0
1889,1575196,0.026253266,1.575196,493.0
1890,1576032,0.0262672,1.576032,507.0
1891,1576864,0.026281066,1.576864,545.0
1892,1577696,0.026294934,1.577696,534.0
1893,1578532,0.026308866,1.578532,496.0
1894,1579364,0.026322734,1.579364,471.0
1895,1580196,0.0263366,1.580196,547.0
1896,1581032,0.026350534,1.581032,538.0
1897,1581864,0.0263644,1.581864,484.0
1898,1582696,0.026378267,1.582696,501.0
1899,1583532,0.0263922,1.583532,495.0
1900,1584364,0.026406066,1.584364,527.0
1901,1585200,0.02642,1.5852,504.0
1902,1586032,0.026433866,1.586032,452.0
1903,1586864,0.026447734,1.586864,458.0
1904,1587700,0.026461666,1.5877,527.0
1905,1588532,0.026475534,1.588532,532.0
1906,1589364,0.0264894,1.589364,515.0
1907,1590200,0.026503334,1.5902,551.0
1908,1591032,0.0265172,1.591032,535.0
1909,1591864,0.026531067,1.591864,522.0
1910,1592700,0.026545,1.5927,523.0
1911,1593532,0.026558867,1.593532,499.0
1912,1594364,0.026572734,1.594364,483.0
1913,1595200,0.026586667,1.5952,545.0
1914,1596032,0.026600534,1.596032,540.0
1915,1596864,0.0266144,1.596864,530.0
1916,1597700,0.026628334,1.5977,517.0
1917,1598532,0.0266422,1.598532,535.0
1918,1599364,0.026656067,1.599364,513.0
1919,1600200,0.02667,1.6002,500.0
1920,1601032,0.026683867,1.601032,511.0
1921,1601864,0.026697733,1.601864,496.0
1922,1602700,0.026711667,1.6027,530.0
1923,1603532,0.026725532,1.603532,516.0
1924,1604364,0.0267394,1.604364,495.0
1925,1605200,0.026753332,1.6052,495.0
1926,1606032,0.0267672,1.606032,510.0
1927,1606864,0.026781067,1.606864,500.0
1928,1607700,0.026795,1.6077,497.0
1929,1608532,0.026808867,1.608532,512.0
1930,1609364,0.026822733,1.609364,538.0
1931,1610200,0.026836667,1.6102,519.0
1932,1611032,0.026850533,1.611032,544.0
1933,1611864,0.0268644,1.611864,503.0
1934,1612700,0.026878333,1.6127,541.0
1935,1613532,0.0268922,1.613532,553.0
1936,1614368,0.026906133,1.614368,529.0
1937,1615200,0.02692,1.6152,522.0
1938,1616032,0.026933867,1.616032,507.0
1939,1616868,0.0269478,1.616868,526.0
1940,1617700,0.026961667,1.6177,509.0
1941,1618532,0.026975533,1.618532,525.0
1942,1619368,0.026989467,1.619368,496.0
1943,1620200,0.027003333,1.6202,481.0
1944,1621032,0.0270172,1.621032,538.0
1945,1621868,0.027031133,1.621868,490.0
1946,1622700,0.027045,1.6227,462.0
1947,1623532,0.027058866,1.623532,504.0
1948,1624368,0.0270728,1.624368,523.0
1949,1625200,0.027086666,1.6252,544.0
1950,1626032,0.027100533,1.626032,523.0
1951,1626868,0.027114466,1.626868,508.0
1952,1627700,0.027128333,1.6277,483.0
1953,1628532,0.0271422,1.628532,508.0
1954,1629368,0.027156133,1.629368,543.0
1955,1630200,0.02717,1.6302,532.0
1956,1631032,0.027183866,1.631032,535.0
1957,1631868,0.0271978,1.631868,544.0
1958,1632700,0.027211666,1.6327,507.0
1959,1633532,0.027225534,1.633532,510.0
1960,1634368,0.027239466,1.634368,529.0
1961,1635200,0.027253333,1.6352,505.0
1962,1636032,0.0272672,1.636032,482.0
1963,1636868,0.027281133,1.636868,484.0
1964,1637700,0.027295,1.6377,480.0
1965,1638532,0.027308866,1.638532,526.0
1966,1639368,0.0273228,1.639368,546.0
1967,1640200,0.027336666,1.6402,522.0
1968,1641036,0.0273506,1.641036,506.0
1969,1641868,0.027364466,1.641868,485.0
1970,1642700,0.027378334,1.6427,470.0
1971,1643536,0.027392266,1.643536,513.0
1972,1644368,0.027406134,1.644368,552.0
1973,1645200,0.02742,1.6452,539.0
1974,1646036,0.027433934,1.646036,511.0
1975,1646868,0.0274478,1.646868,491.0
1976,1647700,0.027461667,1.6477,504.0
1977,1648536,0.0274756,1.648536,492.0
1978,1649368,0.027489467,1.649368,537.0
1979,1650200,0.027503334,1.6502,540.0
1980,1651036,0.027517267,1.651036,538.0
1981,1651868,0.027531134,1.651868,532.0
1982,1652700,0.027545,1.6527,494.0
1983,1653536,0.027558934,1.653536,517.0
1984,1654368,0.0275728,1.654368,507.0
1985,1655200,0.027586667,1.6552,495.0
1986,1656036,0.0276006,1.656036,481.0
1987,1656868,0.027614467,1.656868,516.0
1988,1657700,0.027628334,1.6577,532.0
1989,1658536,0.027642267,1.658536,548.0
1990,1659368,0.027656134,1.659368,503.0
1991,1660200,0.02767,1.6602,509.0
1992,1661036,0.027683934,1.661036,502.0
1993,1661868,0.0276978,1.661868,522.0
1994,1662700,0.027711667,1.6627,523.0
1995,1663536,0.0277256,1.663536,504.0
1996,1664368,0.027739467,1.664368,520.0
1997,1665200,0.027753333,1.6652,532.0
1998,1666036,0.027767267,1.666036,541.0
1999,1666868,0.027781133,1.666868,478.0
2000,1667704,0.027795067,1.667704,454.0
2001,1668536,0.027808933,1.668536,477.0
2002,1669368,0.0278228,1.669368,527.0
2003,1670204,0.027836733,1.670204,547.0
2004,1671036,0.0278506,1.671036,525.0
2005,1671868,0.027864467,1.671868,528.0
2006,1672704,0.0278784,1.672704,510.0
2007,1673536,0.027892267,1.673536,512.0
2008,1674368,0.027906133,1.674368,509.0
2009,1675204,0.027920067,1.675204,513.0
2010,1676036,0.027933933,1.676036,532.0
2011,1676868,0.0279478,1.676868,522.0
2012,1677704,0.027961733,1.677704,525.0
2013,1678536,0.0279756,1.678536,508.0
2014,1679368,0.027989466,1.679368,500.0
2015,1680204,0.0280034,1.680204,519.0
2016,1681036,0.028017268,1.681036,520.0
2017,1681868,0.028031133,1.681868,547.0
2018,1682704,0.028045068,1.682704,520.0
2019,1683536,0.028058933,1.683536,514.0
2020,1684368,0.0280728,1.684368,509.0
2021,1685204,0.028086733,1.685204,487.0
2022,1686036,0.0281006,1.686036,508.0
2023,1686868,0.028114466,1.686868,500.0
2024,1687704,0.0281284,1.687704,486.0
2025,1688536,0.028142266,1.688536,498.0
2026,1689368,0.028156133,1.689368,488.0
2027,1690204,0.028170066,1.690204,510.0
2028,1691036,0.028183933,1.691036,538.0
2029,1691868,0.0281978,1.691868,549.0
2030,1692704,0.028211733,1.692704,542.0
2031,1693536,0.0282256,1.693536,517.0
2032,1694372,0.028239533,1.694372,519.0
2033,1695204,0.0282534,1.695204,524.0
2034,1696036,0.028267266,1.696036,513.0
2035,1696872,0.0282812,1.696872,518.0
2036,1697704,0.028295066,1.697704,506.0
2037,1698536,0.028308934,1.698536,505.0
2038,1699372,0.028322866,1.699372,521.0
2039,1700204,0.028336734,1.700204,525.0
2040,1701036,0.0283506,1.701036,524.0
2041,1701872,0.028364534,1.701872,535.0
2042,1702704,0.0283784,1.702704,496.0
2043,1703536,0.028392266,1.703536,507.0
2044,1704372,0.0284062,1.704372,491.0
2045,1705204,0.028420066,1.705204,505.0
2046,1706036,0.028433934,1.706036,532.0
2047,1706872,0.028447866,1.706872,526.0
2048,1707704,0.028461734,1.707704,494.0
2049,1708536,0.0284756,1.708536,465.0
2050,1709372,0.028489534,1.709372,495.0
2051,1710204,0.0285034,1.710204,530.0
2052,1711036,0.028517267,1.711036,519.0
2053,1711872,0.0285312,1.711872,512.0
2054,1712704,0.028545067,1.712704,521.0
2055,1713536,0.028558934,1.713536,543.0
2056,1714372,0.028572867,1.714372,566.0
2057,1715208,0.0285868,1.715208,521.0
2058,1716036,0.0286006,1.716036,511.0
2059,1716872,0.028614534,1.716872,538.0
2060,1717704,0.0286284,1.717704,535.0
2061,1718540,0.028642334,1.71854,519.0
2062,1719372,0.0286562,1.719372,482.0
2063,1720204,0.028670067,1.720204,483.0
2064,1721040,0.028684,1.72104,512.0
2065,1721872,0.028697867,1.721872,532.0
2066,1722704,0.028711732,1.722704,517.0
2067,1723540,0.028725667,1.72354,463.0
2068,1724372,0.028739532,1.724372,452.0
2069,1725204,0.0287534,1.725204,504.0
2070,1726040,0.028767332,1.72604,557.0
2071,1726872,0.0287812,1.726872,538.0
2072,1727704,0.028795067,1.727704,523.0
2073,1728540,0.028809,1.72854,510.0
2074,1729372,0.028822867,1.729372,516.0
2075,1730204,0.028836733,1.730204,529.0
2076,1731040,0.028850667,1.73104,523.0
2077,1731872,0.028864533,1.731872,525.0
2078,1732704,0.0288784,1.732704,521.0
2079,1733540,0.028892333,1.73354,536.0
2080,1734372,0.0289062,1.734372,519.0
2081,1735204,0.028920067,1.735204,510.0
2082,1736040,0.028934,1.73604,504.0
2083,1736872,0.028947867,1.736872,496.0
2084,1737704,0.028961733,1.737704,508.0
2085,1738540,0.028975667,1.73854,502.0
2086,1739372,0.028989533,1.739372,534.0
2087,1740204,0.0290034,1.740204,544.0
2088,1741040,0.029017333,1.74104,518.0
2089,1741872,0.0290312,1.741872,517.0
2090,1742704,0.029045066,1.742704,540.0
2091,1743540,0.029059,1.74354,548.0
2092,1744372,0.029072866,1.744372,519.0
2093,1745204,0.029086733,1.745204,484.0
2094,1746040,0.029100666,1.74604,462.0
2095,1746872,0.029114533,1.746872,457.0
2096,1747708,0.029128466,1.747708,487.0
2097,1748540,0.029142333,1.74854,515.0
2098,1749372,0.0291562,1.749372,540.0
2099,1750208,0.029170133,1.750208,532.0
2100,1751040,0.029184,1.75104,543.0
2101,1751872,0.029197866,1.751872,532.0
2102,1752708,0.0292118,1.752708,535.0
2103,1753540,0.029225666,1.75354,504.0
2104,1754372,0.029239533,1.754372,499.0
2105,1755208,0.029253466,1.755208,516.0
2106,1756040,0.029267333,1.75604,500.0
2107,1756872,0.0292812,1.756872,499.0
2108,1757708,0.029295133,1.757708,514.0
2109,1758540,0.029309,1.75854,539.0
2110,1759372,0.029322866,1.759372,539.0
2111,1760208,0.0293368,1.760208,520.0
2112,1761040,0.029350666,1.76104,519.0
2113,1761872,0.029364534,1.761872,510.0
2114,1762708,0.029378466,1.762708,501.0
2115,1763540,0.029392334,1.76354,498.0
2116,1764372,0.0294062,1.764372,505.0
2117,1765208,0.029420134,1.765208,487.0
2118,1766040,0.029434,1.76604,485.0
2119,1766872,0.029447867,1.766872,476.0
2120,1767708,0.0294618,1.767708,512.0
2121,1768540,0.029475667,1.76854,501.0
2122,1769372,0.029489534,1.769372,523.0
2123,1770208,0.029503467,1.770208,539.0
2124,1771040,0.029517334,1.77104,540.0
2125,1771872,0.0295312,1.771872,561.0
2126,1772708,0.029545134,1.772708,519.0
2127,1773540,0.029559,1.77354,543.0
2128,1774376,0.029572934,1.774376,548.0
2129,1775208,0.0295868,1.775208,544.0
2130,1776040,0.029600667,1.77604,533.0
2131,1776876,0.0296146,1.776876,472.0
2132,1777708,0.029628467,1.777708,449.0
2133,1778540,0.029642334,1.77854,475.0
2134,1779376,0.029656267,1.779376,496.0
2135,1780208,0.029670134,1.780208,506.0
2136,1781040,0.029684,1.78104,488.0
2137,1781876,0.029697934,1.781876,476.0
2138,1782708,0.0297118,1.782708,501.0
2139,1783540,0.029725667,1.78354,548.0
2140,1784376,0.0297396,1.784376,547.0
2141,1785208,0.029753467,1.785208,529.0
2142,1786040,0.029767333,1.78604,556.0
2143,1786876,0.029781267,1.786876,561.0
2144,1787708,0.029795133,1.787708,536.0
2145,1788540,0.029809,1.78854,493.0
2146,1789376,0.029822933,1.789376,491.0
2147,1790208,0.0298368,1.790208,494.0
2148,1791040,0.029850667,1.79104,537.0
2149,1791876,0.0298646,1.791876,530.0
2150,1792708,0.029878467,1.792708,479.0
2151,1793540,0.029892333,1.79354,508.0
2152,1794376,0.029906267,1.794376,523.0
2153,1795208,0.029920133,1.795208,564.0
2154,1796040,0.029934,1.79604,546.0
2155,1796876,0.029947933,1.796876,510.0
2156,1797708,0.0299618,1.797708,483.0
2157,1798540,0.029975668,1.79854,483.0
2158,1799376,0.0299896,1.799376,513.0
2159,1800208,0.030003468,1.800208,523.0
2160,1801044,0.0300174,1.801044,510.0
2161,1801876,0.030031268,1.801876,513.0
2162,1802708,0.030045133,1.802708,497.0
2163,1803544,0.030059068,1.803544,505.0
2164,1804376,0.030072933,1.804376,512.0
2165,1805208,0.0300868,1.805208,515.0
2166,1806044,0.030100733,1.806044,557.0
2167,1806876,0.0301146,1.806876,526.0
2168,1807708,0.030128466,1.807708,547.0
2169,1808544,0.0301424,1.808544,538.0
2170,1809376,0.030156266,1.809376,527.0
2171,1810208,0.030170133,1.810208,550.0
2172,1811044,0.030184066,1.811044,515.0
2173,1811876,0.030197933,1.811876,504.0
2174,1812708,0.0302118,1.812708,494.0
2175,1813544,0.030225733,1.813544,466.0
2176,1814376,0.0302396,1.814376,472.0
2177,1815208,0.030253466,1.815208,474.0
2178,1816044,0.0302674,1.816044,513.0
2179,1816876,0.030281266,1.816876,513.0
2180,1817708,0.030295134,1.817708,483.0
2181,1818544,0.030309066,1.818544,484.0
2182,1819376,0.030322934,1.819376,500.0
2183,1820208,0.0303368,1.820208,532.0
2184,1821044,0.030350734,1.821044,533.0
2185,1821876,0.0303646,1.821876,542.0
2186,1822708,0.030378466,1.822708,530.0
2187,1823544,0.0303924,1.823544,519.0
2188,1824376,0.030406266,1.824376,527.0
2189,1825208,0.030420134,1.825208,540.0
2190,1826044,0.030434066,1.826044,548.0
2191,1826876,0.030447934,1.826876,544.0
2192,1827712,0.030461866,1.827712,547.0
2193,1828544,0.030475734,1.828544,506.0
2194,1829376,0.0304896,1.829376,508.0
2195,1830212,0.030503534,1.830212,530.0
2196,1831044,0.0305174,1.831044,533.0
2197,1831876,0.030531267,1.831876,516.0
2198,1832712,0.0305452,1.832712,486.0
2199,1833544,0.030559067,1.833544,476.0
2200,1834376,0.030572934,1.834376,491.0
2201,1835212,0.030586867,1.835212,501.0
2202,1836044,0.030600734,1.836044,511.0
2203,1836876,0.0306146,1.836876,504.0
2204,1837712,0.030628534,1.837712,505.0
2205,1838544,0.0306424,1.838544,499.0
2206,1839376,0.030656267,1.839376,471.0
2207,1840212,0.0306702,1.840212,510.0
2208,1841044,0.030684067,1.841044,518.0
2209,1841876,0.030697932,1.841876,553.0
2210,1842712,0.030711867,1.842712,550.0
2211,1843544,0.030725732,1.843544,533.0
2212,1844376,0.0307396,1.844376,542.0
2213,1845212,0.030753532,1.845212,525.0
2214,1846044,0.0307674,1.846044,530.0
2215,1846876,0.030781267,1.846876,540.0
2216,1847712,0.0307952,1.847712,531.0
2217,1848544,0.030809067,1.848544,506.0
2218,1849376,0.030822933,1.849376,486.0
2219,1850212,0.030836867,1.850212,492.0
2220,1851044,0.030850733,1.851044,496.0
2221,1851880,0.030864667,1.85188,489.0
2222,1852712,0.030878533,1.852712,517.0
2223,1853544,0.0308924,1.853544,491.0
2224,1854380,0.030906333,1.85438,471.0
2225,1855212,0.0309202,1.855212,500.0
2226,1856044,0.030934067,1.856044,504.0
2227,1856880,0.030948,1.85688,520.0
2228,1857712,0.030961867,1.857712,530.0
2229,1858544,0.030975733,1.858544,513.0
2230,1859380,0.030989667,1.85938,511.0
2231,1860212,0.031003533,1.860212,525.0
2232,1861044,0.0310174,1.861044,523.0
2233,1861880,0.031031333,1.86188,525.0
2234,1862712,0.0310452,1.862712,531.0
2235,1863544,0.031059066,1.863544,552.0
2236,1864380,0.031073,1.86438,521.0
2237,1865212,0.031086866,1.865212,523.0
2238,1866044,0.031100733,1.866044,508.0
2239,1866880,0.031114666,1.86688,521.0
2240,1867712,0.031128533,1.867712,537.0
2241,1868544,0.0311424,1.868544,529.0
2242,1869380,0.031156333,1.86938,501.0
2243,1870212,0.0311702,1.870212,494.0
2244,1871044,0.031184066,1.871044,516.0
2245,1871880,0.031198,1.87188,506.0
2246,1872712,0.031211866,1.872712,498.0
2247,1873544,0.031225733,1.873544,491.0
2248,1874380,0.031239666,1.87438,479.0
2249,1875212,0.03125353,1.875212,482.0
2250,1876044,0.0312674,1.876044,512.0
2251,1876880,0.031281333,1.87688,517.0
2252,1877712,0.0312952,1.877712,540.0
2253,1878544,0.03130907,1.878544,540.0
2254,1879380,0.031323,1.87938,502.0
2255,1880212,0.031336866,1.880212,477.0
2256,1881048,0.0313508,1.881048,494.0
2257,1881880,0.03136467,1.88188,539.0
2258,1882712,0.031378534,1.882712,531.0
2259,1883548,0.031392466,1.883548,535.0
2260,1884380,0.03140633,1.88438,505.0
2261,1885212,0.0314202,1.885212,527.0
2262,1886048,0.031434134,1.886048,532.0
2263,1886880,0.031448,1.88688,523.0
2264,1887712,0.03146187,1.887712,528.0
2265,1888548,0.0314758,1.888548,524.0
2266,1889380,0.031489667,1.88938,529.0
2267,1890212,0.031503532,1.890212,499.0
2268,1891048,0.03151747,1.891048,488.0
2269,1891880,0.031531334,1.89188,476.0
2270,1892712,0.0315452,1.892712,488.0
2271,1893548,0.031559132,1.893548,502.0
2272,1894380,0.031573,1.89438,492.0
2273,1895212,0.031586867,1.895212,496.0
2274,1896048,0.0316008,1.896048,490.0
2275,1896880,0.031614665,1.89688,514.0
2276,1897712,0.031628534,1.897712,522.0
2277,1898548,0.031642467,1.898548,531.0
2278,1899380,0.031656332,1.89938,537.0
2279,1900212,0.0316702,1.900212,498.0
2280,1901048,0.031684134,1.901048,470.0
2281,1901880,0.031698,1.90188,509.0
2282,1902712,0.031711865,1.902712,549.0
2283,1903548,0.0317258,1.903548,564.0
2284,1904380,0.031739667,1.90438,537.0
2285,1905212,0.031753533,1.905212,479.0
2286,1906048,0.031767465,1.906048,448.0
2287,1906880,0.031781334,1.90688,472.0
2288,1907720,0.031795334,1.90772,528.0
2289,1908548,0.031809133,1.908548,542.0
2290,1909380,0.031823,1.90938,565.0
2291,1910216,0.031836934,1.910216,554.0
2292,1911048,0.0318508,1.911048,534.0
2293,1911880,0.031864665,1.91188,514.0
2294,1912716,0.0318786,1.912716,475.0
2295,1913548,0.031892467,1.913548,472.0
2296,1914380,0.031906333,1.91438,476.0
2297,1915216,0.031920265,1.915216,490.0
2298,1916048,0.031934135,1.916048,516.0
2299,1916880,0.031948,1.91688,508.0
2300,1917716,0.031961933,1.917716,549.0
2301,1918548,0.0319758,1.918548,546.0
2302,1919380,0.031989668,1.91938,567.0
2303,1920216,0.0320036,1.920216,545.0
2304,1921048,0.032017466,1.921048,515.0
2305,1921880,0.032031335,1.92188,491.0
2306,1922716,0.032045268,1.922716,501.0
2307,1923548,0.032059133,1.923548,514.0
2308,1924380,0.032073,1.92438,506.0
2309,1925216,0.032086935,1.925216,476.0
2310,1926048,0.0321008,1.926048,475.0
2311,1926880,0.032114666,1.92688,468.0
2312,1927716,0.0321286,1.927716,492.0
2313,1928548,0.032142468,1.928548,528.0
2314,1929380,0.032156333,1.92938,533.0
2315,1930216,0.032170266,1.930216,563.0
2316,1931048,0.032184135,1.931048,544.0
2317,1931884,0.032198068,1.931884,525.0
2318,1932716,0.032211933,1.932716,537.0
2319,1933548,0.0322258,1.933548,536.0
2320,1934384,0.032239735,1.934384,544.0
2321,1935216,0.0322536,1.935216,516.0
2322,1936048,0.032267466,1.936048,524.0
2323,1936884,0.0322814,1.936884,497.0
2324,1937716,0.032295268,1.937716,482.0
2325,1938548,0.032309134,1.938548,488.0
2326,1939384,0.032323066,1.939384,476.0
2327,1940216,0.03233693,1.940216,481.0
2328,1941048,0.0323508,1.941048,463.0
2329,1941884,0.032364734,1.941884,473.0
2330,1942716,0.0323786,1.942716,499.0
2331,1943548,0.03239247,1.943548,511.0
2332,1944384,0.0324064,1.944384,550.0
2333,1945216,0.032420266,1.945216,554.0
2334,1946048,0.032434132,1.946048,531.0
2335,1946884,0.03244807,1.946884,533.0
2336,1947716,0.032461934,1.947716,543.0
2337,1948548,0.0324758,1.948548,541.0
2338,1949384,0.032489732,1.949384,521.0
2339,1950216,0.0325036,1.950216,547.0
2340,1951048,0.032517467,1.951048,535.0
2341,1951884,0.0325314,1.951884,514.0
2342,1952716,0.032545265,1.952716,488.0
2343,1953548,0.032559134,1.953548,495.0
2344,1954384,0.032573067,1.954384,520.0
2345,1955216,0.032586932,1.955216,512.0
2346,1956048,0.0326008,1.956048,485.0
2347,1956884,0.032614734,1.956884,461.0
2348,1957716,0.0326286,1.957716,479.0
2349,1958548,0.032642465,1.958548,489.0
2350,1959384,0.0326564,1.959384,481.0
2351,1960216,0.032670267,1.960216,491.0
2352,1961052,0.0326842,1.961052,513.0
2353,1961884,0.032698065,1.961884,530.0
2354,1962716,0.032711934,1.962716,524.0
2355,1963552,0.032725867,1.963552,499.0
2356,1964384,0.032739732,1.964384,527.0
2357,1965216,0.0327536,1.965216,555.0
2358,1966052,0.032767534,1.966052,534.0
2359,1966884,0.0327814,1.966884,548.0
2360,1967716,0.032795265,1.967716,537.0
2361,1968552,0.0328092,1.968552,543.0
2362,1969384,0.032823067,1.969384,548.0
2363,1970216,0.032836933,1.970216,546.0
2364,1971052,0.032850865,1.971052,553.0
2365,1971884,0.032864735,1.971884,498.0
2366,1972716,0.0328786,1.972716,472.0
2367,1973552,0.032892533,1.973552,463.0
2368,1974384,0.0329064,1.974384,491.0
2369,1975216,0.032920267,1.975216,496.0
2370,1976052,0.0329342,1.976052,506.0
2371,1976884,0.032948066,1.976884,510.0
2372,1977716,0.032961935,1.977716,511.0
2373,1978552,0.032975867,1.978552,494.0
2374,1979384,0.032989733,1.979384,526.0
2375,1980216,0.0330036,1.980216,562.0
2376,1981052,0.033017535,1.981052,532.0
2377,1981884,0.0330314,1.981884,508.0
2378,1982716,0.033045266,1.982716,491.0
2379,1983552,0.0330592,1.983552,491.0
2380,1984384,0.033073068,1.984384,528.0
2381,1985216,0.033086933,1.985216,521.0
2382,1986052,0.033100866,1.986052,516.0
2383,1986884,0.033114735,1.986884,537.0
2384,1987720,0.033128668,1.98772,545.0
2385,1988552,0.033142533,1.988552,531.0
2386,1989384,0.0331564,1.989384,528.0
2387,1990220,0.033170335,1.99022,539.0
2388,1991052,0.0331842,1.991052,537.0
2389,1991884,0.033198066,1.991884,512.0
2390,1992720,0.033212,1.99272,461.0
2391,1993552,0.033225868,1.993552,453.0
2392,1994384,0.033239733,1.994384,483.0
2393,1995220,0.033253666,1.99522,487.0
2394,1996052,0.03326753,1.996052,527.0
2395,1996884,0.0332814,1.996884,548.0
2396,1997720,0.033295333,1.99772,518.0
2397,1998552,0.0333092,1.998552,486.0
2398,1999384,0.03332307,1.999384,514.0
2399,2000220,0.033337,2.00022,515.0
2400,2001052,0.033350866,2.001052,534.0
2401,2001884,0.03336473,2.001884,517.0
2402,2002720,0.033378668,2.00272,481.0
2403,2003552,0.033392534,2.003552,492.0
2404,2004384,0.0334064,2.004384,489.0
2405,2005220,0.03342033,2.00522,549.0
2406,2006052,0.0334342,2.006052,542.0
2407,2006884,0.033448067,2.006884,549.0
2408,2007720,0.033462,2.00772,520.0
2409,2008552,0.03347587,2.008552,496.0
2410,2009384,0.033489734,2.009384,503.0
2411,2010220,0.033503667,2.01022,507.0
2412,2011052,0.033517532,2.011052,516.0
2413,2011888,0.03353147,2.011888,528.0
2414,2012720,0.033545334,2.01272,514.0
2415,2013552,0.0335592,2.013552,483.0
2416,2014388,0.033573132,2.014388,496.0
2417,2015220,0.033587,2.01522,491.0
2418,2016052,0.033600867,2.016052,524.0
2419,2016888,0.0336148,2.016888,523.0
2420,2017720,0.033628665,2.01772,505.0
2421,2018552,0.033642534,2.018552,519.0
2422,2019388,0.033656467,2.019388,528.0
2423,2020220,0.033670332,2.02022,522.0
2424,2021052,0.0336842,2.021052,534.0
2425,2021888,0.033698134,2.021888,500.0
2426,2022720,0.033712,2.02272,499.0
2427,2023552,0.033725865,2.023552,499.0
2428,2024388,0.0337398,2.024388,520.0
2429,2025220,0.033753667,2.02522,539.0
2430,2026052,0.033767533,2.026052,533.0
2431,2026888,0.033781465,2.026888,518.0
2432,2027720,0.033795334,2.02772,520.0
2433,2028552,0.0338092,2.028552,523.0
2434,2029388,0.033823133,2.029388,515.0
2435,2030220,0.033837,2.03022,524.0
2436,2031052,0.033850867,2.031052,537.0
2437,2031888,0.0338648,2.031888,517.0
2438,2032720,0.033878665,2.03272,462.0
2439,2033552,0.033892535,2.033552,465.0
2440,2034388,0.033906467,2.034388,477.0
2441,2035220,0.033920333,2.03522,510.0
2442,2036052,0.0339342,2.036052,516.0
2443,2036888,0.033948135,2.036888,495.0
2444,2037720,0.033962,2.03772,535.0
2445,2038556,0.033975933,2.038556,517.0
2446,2039388,0.0339898,2.039388,506.0
2447,2040220,0.034003668,2.04022,525.0
2448,2041056,0.0340176,2.041056,530.0
2449,2041888,0.034031466,2.041888,537.0
2450,2042720,0.034045335,2.04272,513.0
2451,2043556,0.034059267,2.043556,484.0
2452,2044388,0.034073133,2.044388,500.0
2453,2045220,0.034087,2.04522,505.0
2454,2046056,0.034100935,2.046056,518.0
2455,2046888,0.0341148,2.046888,528.0
2456,2047720,0.034128666,2.04772,555.0
2457,2048556,0.0341426,2.048556,536.0
2458,2049388,0.034156468,2.049388,527.0
2459,2050220,0.034170333,2.05022,526.0
2460,2051056,0.034184266,2.051056,530.0
2461,2051888,0.034198135,2.051888,519.0
2462,2052720,0.034212,2.05272,504.0
2463,2053556,0.034225933,2.053556,513.0
2464,2054388,0.0342398,2.054388,518.0
2465,2055220,0.034253668,2.05522,503.0
2466,2056056,0.0342676,2.056056,477.0
2467,2056888,0.034281466,2.056888,472.0
2468,2057720,0.03429533,2.05772,480.0
2469,2058556,0.034309268,2.058556,494.0
2470,2059388,0.034323134,2.059388,490.0
2471,2060220,0.034337,2.06022,480.0
2472,2061056,0.03435093,2.061056,476.0
2473,2061888,0.0343648,2.061888,513.0
2474,2062720,0.034378666,2.06272,530.0
2475,2063556,0.0343926,2.063556,557.0
2476,2064392,0.03440653,2.064392,545.0
2477,2065220,0.034420334,2.06522,542.0
2478,2066056,0.034434266,2.066056,520.0
2479,2066888,0.034448132,2.066888,537.0
2480,2067724,0.03446207,2.067724,536.0
2481,2068556,0.034475934,2.068556,551.0
2482,2069388,0.0344898,2.069388,516.0
2483,2070224,0.034503732,2.070224,508.0
2484,2071056,0.0345176,2.071056,491.0
2485,2071888,0.034531467,2.071888,490.0
2486,2072724,0.0345454,2.072724,501.0
2487,2073556,0.03455927,2.073556,506.0
2488,2074388,0.034573134,2.074388,527.0
2489,2075224,0.034587067,2.075224,522.0
2490,2076056,0.034600932,2.076056,535.0
2491,2076888,0.0346148,2.076888,506.0
2492,2077724,0.034628734,2.077724,501.0
2493,2078556,0.0346426,2.078556,522.0
2494,2079388,0.034656465,2.079388,495.0
2495,2080224,0.0346704,2.080224,516.0
2496,2081056,0.034684267,2.081056,517.0
2497,2081888,0.034698132,2.081888,514.0
2498,2082724,0.034712065,2.082724,528.0
2499,2083556,0.034725934,2.083556,499.0
2500,2084388,0.0347398,2.084388,483.0
2501,2085224,0.034753732,2.085224,467.0
2502,2086056,0.0347676,2.086056,477.0
2503,2086888,0.034781467,2.086888,478.0
2504,2087724,0.0347954,2.087724,511.0
2505,2088556,0.034809265,2.088556,533.0
2506,2089388,0.034823135,2.089388,508.0
2507,2090224,0.034837067,2.090224,492.0
2508,2091056,0.034850933,2.091056,498.0
2509,2091888,0.0348648,2.091888,531.0
2510,2092724,0.034878734,2.092724,565.0
2511,2093556,0.0348926,2.093556,575.0
2512,2094392,0.034906533,2.094392,553.0
2513,2095224,0.0349204,2.095224,538.0
2514,2096056,0.034934267,2.096056,540.0
2515,2096892,0.0349482,2.096892,541.0
2516,2097724,0.034962066,2.097724,541.0
2517,2098556,0.034975935,2.098556,520.0
2518,2099392,0.034989867,2.099392,490.0
2519,2100224,0.035003733,2.100224,475.0
2520,2101056,0.0350176,2.101056,479.0
2521,2101892,0.035031535,2.101892,492.0
2522,2102724,0.0350454,2.102724,486.0
2523,2103556,0.035059266,2.103556,515.0
2524,2104392,0.0350732,2.104392,510.0
2525,2105224,0.035087068,2.105224,483.0
2526,2106056,0.035100933,2.106056,487.0
2527,2106892,0.035114866,2.106892,509.0
2528,2107724,0.035128735,2.107724,503.0
2529,2108556,0.0351426,2.108556,535.0
2530,2109392,0.035156533,2.109392,557.0
2531,2110224,0.0351704,2.110224,503.0
2532,2111056,0.035184268,2.111056,488.0
2533,2111892,0.0351982,2.111892,491.0
2534,2112724,0.035212066,2.112724,515.0
2535,2113556,0.03522593,2.113556,535.0
2536,2114392,0.035239868,2.114392,553.0
2537,2115224,0.035253733,2.115224,566.0
2538,2116056,0.0352676,2.116056,530.0
2539,2116892,0.03528153,2.116892,496.0
2540,2117724,0.0352954,2.117724,506.0
2541,2118556,0.035309266,2.118556,523.0
2542,2119392,0.0353232,2.119392,507.0
2543,2120224,0.03533707,2.120224,486.0
2544,2121060,0.035351,2.12106,510.0
2545,2121892,0.035364866,2.121892,505.0
2546,2122724,0.03537873,2.122724,523.0
2547,2123560,0.035392668,2.12356,502.0
2548,2124392,0.035406534,2.124392,487.0
2549,2125224,0.0354204,2.125224,503.0
2550,2126060,0.03543433,2.12606,494.0
2551,2126892,0.0354482,2.126892,531.0
2552,2127724,0.035462067,2.127724,536.0
2553,2128560,0.035476,2.12856,512.0
2554,2129392,0.03548987,2.129392,482.0
2555,2130224,0.035503734,2.130224,525.0
2556,2131060,0.035517666,2.13106,520.0
2557,2131892,0.035531532,2.131892,521.0
2558,2132724,0.0355454,2.132724,521.0
2559,2133560,0.035559334,2.13356,524.0
2560,2134392,0.0355732,2.134392,536.0
2561,2135224,0.035587065,2.135224,536.0
2562,2136060,0.035601,2.13606,532.0
2563,2136892,0.035614867,2.136892,523.0
2564,2137724,0.035628732,2.137724,503.0
2565,2138560,0.035642665,2.13856,493.0
2566,2139392,0.035656534,2.139392,516.0
2567,2140224,0.0356704,2.140224,518.0
2568,2141060,0.035684332,2.14106,496.0
2569,2141892,0.0356982,2.141892,484.0
2570,2142724,0.035712067,2.142724,510.0
2571,2143560,0.035726,2.14356,511.0
2572,2144392,0.035739865,2.144392,548.0
2573,2145228,0.0357538,2.145228,533.0
2574,2146060,0.035767667,2.14606,510.0
2575,2146892,0.035781533,2.146892,471.0
2576,2147728,0.035795465,2.147728,492.0
2577,2148560,0.035809334,2.14856,512.0
2578,2149392,0.0358232,2.149392,520.0
2579,2150228,0.035837132,2.150228,517.0
2580,2151060,0.035851,2.15106,514.0
2581,2151892,0.035864867,2.151892,523.0
2582,2152728,0.0358788,2.152728,500.0
2583,2153560,0.035892665,2.15356,529.0
2584,2154392,0.035906535,2.154392,543.0
2585,2155228,0.035920467,2.155228,539.0
2586,2156060,0.035934333,2.15606,537.0
2587,2156892,0.0359482,2.156892,524.0
2588,2157728,0.035962135,2.157728,482.0
2589,2158560,0.035976,2.15856,486.0
2590,2159392,0.035989866,2.159392,508.0
2591,2160228,0.0360038,2.160228,525.0
2592,2161060,0.036017668,2.16106,517.0
2593,2161892,0.036031533,2.161892,530.0
2594,2162728,0.036045466,2.162728,482.0
2595,2163560,0.036059335,2.16356,495.0
2596,2164392,0.0360732,2.164392,526.0
2597,2165228,0.036087133,2.165228,524.0
2598,2166060,0.036101,2.16606,523.0
2599,2166892,0.036114868,2.166892,525.0
2600,2167728,0.0361288,2.167728,504.0
2601,2168560,0.036142666,2.16856,479.0
2602,2169392,0.036156535,2.169392,498.0
2603,2170228,0.036170468,2.170228,524.0
2604,2171060,0.036184333,2.17106,490.0
2605,2171892,0.0361982,2.171892,508.0
2606,2172728,0.036212135,2.172728,519.0
2607,2173560,0.036226,2.17356,531.0
2608,2174396,0.036239933,2.174396,507.0
2609,2175228,0.0362538,2.175228,493.0
2610,2176060,0.036267668,2.17606,519.0
2611,2176896,0.0362816,2.176896,524.0
2612,2177728,0.036295466,2.177728,522.0
2613,2178560,0.03630933,2.17856,513.0
2614,2179396,0.036323268,2.179396,519.0
2615,2180228,0.036337133,2.180228,465.0
2616,2181060,0.036351,2.18106,497.0
2617,2181896,0.03636493,2.181896,522.0
2618,2182728,0.0363788,2.182728,532.0
2619,2183560,0.036392666,2.18356,518.0
2620,2184396,0.0364066,2.184396,513.0
2621,2185228,0.03642047,2.185228,499.0
2622,2186060,0.036434334,2.18606,525.0
2623,2186896,0.036448266,2.186896,505.0
2624,2187728,0.036462132,2.187728,482.0
2625,2188560,0.036476,2.18856,507.0
2626,2189396,0.036489934,2.189396,501.0
2627,2190228,0.0365038,2.190228,518.0
2628,2191060,0.03651767,2.19106,512.0
2629,2191896,0.0365316,2.191896,517.0
2630,2192728,0.036545467,2.192728,524.0
2631,2193560,0.036559332,2.19356,545.0
2632,2194396,0.03657327,2.194396,532.0
2633,2195228,0.036587134,2.195228,541.0
2634,2196060,0.036601,2.19606,534.0
2635,2196896,0.036614932,2.196896,519.0
2636,2197728,0.0366288,2.197728,485.0
2637,2198564,0.036642734,2.198564,490.0
2638,2199396,0.0366566,2.199396,497.0
2639,2200228,0.036670465,2.200228,519.0
2640,2201064,0.0366844,2.201064,497.0
2641,2201896,0.036698267,2.201896,491.0
2642,2202728,0.036712132,2.202728,507.0
2643,2203564,0.036726065,2.203564,521.0
2644,2204396,0.036739934,2.204396,520.0
2645,2205228,0.0367538,2.205228,510.0
2646,2206064,0.036767732,2.206064,520.0
2647,2206896,0.0367816,2.206896,517.0
2648,2207728,0.036795467,2.207728,487.0
2649,2208564,0.0368094,2.208564,504.0
2650,2209396,0.036823265,2.209396,483.0
2651,2210228,0.036837135,2.210228,505.0
2652,2211064,0.036851067,2.211064,528.0
2653,2211896,0.036864933,2.211896,544.0
2654,2212728,0.0368788,2.212728,546.0
2655,2213564,0.036892734,2.213564,541.0
2656,2214396,0.0369066,2.214396,495.0
2657,2215228,0.036920466,2.215228,491.0
2658,2216064,0.0369344,2.216064,516.0
2659,2216896,0.036948267,2.216896,489.0
2660,2217728,0.036962133,2.217728,500.0
2661,2218564,0.036976065,2.218564,503.0
2662,2219396,0.036989935,2.219396,500.0
2663,2220228,0.0370038,2.220228,534.0
2664,2221064,0.037017733,2.221064,511.0
2665,2221896,0.0370316,2.221896,485.0
2666,2222728,0.037045468,2.222728,489.0
2667,2223564,0.0370594,2.223564,520.0
2668,2224396,0.037073266,2.224396,531.0
2669,2225228,0.037087135,2.225228,538.0
2670,2226064,0.037101068,2.226064,479.0
2671,2226896,0.037114933,2.226896,503.0
2672,2227732,0.037128866,2.227732,498.0
2673,2228564,0.037142735,2.228564,520.0
2674,2229396,0.0371566,2.229396,538.0
2675,2230232,0.037170533,2.230232,492.0
2676,2231064,0.0371844,2.231064,510.0
2677,2231896,0.037198268,2.231896,530.0
2678,2232732,0.0372122,2.232732,533.0
2679,2233564,0.037226066,2.233564,500.0
2680,2234396,0.03723993,2.234396,481.0
2681,2235232,0.037253868,2.235232,513.0
2682,2236064,0.037267733,2.236064,497.0
2683,2236896,0.0372816,2.236896,552.0
2684,2237732,0.03729553,2.237732,551.0
2685,2238564,0.0373094,2.238564,534.0
2686,2239396,0.037323266,2.239396,473.0
2687,2240232,0.0373372,2.240232,464.0
2688,2241064,0.037351068,2.241064,511.0
2689,2241896,0.037364934,2.241896,521.0
2690,2242732,0.037378866,2.242732,517.0
2691,2243564,0.03739273,2.243564,480.0
2692,2244396,0.0374066,2.244396,527.0
2693,2245232,0.037420534,2.245232,516.0
2694,2246064,0.0374344,2.246064,539.0
2695,2246896,0.03744827,2.246896,547.0
2696,2247732,0.0374622,2.247732,511.0
2697,2248564,0.037476066,2.248564,511.0
2698,2249396,0.037489932,2.249396,506.0
2699,2250232,0.03750387,2.250232,511.0
2700,2251064,0.037517734,2.251064,526.0
2701,2251896,0.0375316,2.251896,514.0
2702,2252732,0.037545532,2.252732,501.0
2703,2253564,0.0375594,2.253564,508.0
2704,2254400,0.037573334,2.2544,550.0
2705,2255232,0.0375872,2.255232,518.0
2706,2256064,0.037601065,2.256064,538.0
2707,2256904,0.03761507,2.256904,495.0
2708,2257732,0.037628867,2.257732,534.0
2709,2258564,0.037642732,2.258564,476.0
2710,2259400,0.037656665,2.2594,510.0
2711,2260232,0.037670534,2.260232,477.0
2712,2261064,0.0376844,2.261064,517.0
2713,2261900,0.037698332,2.2619,505.0
2714,2262732,0.0377122,2.262732,503.0
2715,2263564,0.037726067,2.263564,541.0
2716,2264400,0.03774,2.2644,534.0
2717,2265232,0.037753865,2.265232,539.0
2718,2266064,0.037767734,2.266064,500.0
2719,2266900,0.037781667,2.2669,530.0
2720,2267732,0.037795532,2.267732,511.0
2721,2268564,0.0378094,2.268564,492.0
2722,2269400,0.037823334,2.2694,511.0
2723,2270232,0.0378372,2.270232,510.0
2724,2271064,0.037851065,2.271064,476.0
2725,2271900,0.037865,2.2719,510.0
2726,2272732,0.037878867,2.272732,516.0
2727,2273564,0.037892733,2.273564,560.0
2728,2274400,0.037906665,2.2744,504.0
2729,2275232,0.037920535,2.275232,508.0
2730,2276064,0.0379344,2.276064,471.0
2731,2276900,0.037948333,2.2769,518.0
2732,2277732,0.0379622,2.277732,498.0
2733,2278568,0.037976135,2.278568,517.0
2734,2279400,0.03799,2.2794,513.0
2735,2280232,0.038003866,2.280232,523.0
2736,2281068,0.0380178,2.281068,529.0
2737,2281900,0.038031667,2.2819,510.0
2738,2282732,0.038045533,2.282732,509.0
2739,2283568,0.038059466,2.283568,509.0
2740,2284400,0.038073335,2.2844,486.0
2741,2285232,0.0380872,2.285232,485.0
2742,2286068,0.038101133,2.286068,505.0
2743,2286900,0.038115,2.2869,543.0
2744,2287732,0.038128868,2.287732,489.0
2745,2288568,0.0381428,2.288568,515.0
2746,2289400,0.038156666,2.2894,496.0
2747,2290232,0.038170535,2.290232,533.0
2748,2291068,0.038184468,2.291068,520.0
2749,2291900,0.038198333,2.2919,521.0
2750,2292732,0.0382122,2.292732,530.0
2751,2293568,0.038226135,2.293568,551.0
2752,2294400,0.03824,2.2944,522.0
2753,2295232,0.038253866,2.295232,499.0
2754,2296068,0.0382678,2.296068,525.0
2755,2296900,0.038281668,2.2969,528.0
2756,2297732,0.038295534,2.297732,506.0
2757,2298568,0.038309466,2.298568,528.0
2758,2299400,0.03832333,2.2994,493.0
2759,2300232,0.0383372,2.300232,527.0
2760,2301068,0.038351133,2.301068,453.0
2761,2301900,0.038365,2.3019,493.0
2762,2302732,0.03837887,2.302732,487.0
2763,2303568,0.0383928,2.303568,528.0
2764,2304400,0.038406666,2.3044,528.0
2765,2305232,0.038420532,2.305232,495.0
2766,2306068,0.03843447,2.306068,506.0
2767,2306900,0.038448334,2.3069,537.0
2768,2307736,0.038462266,2.307736,552.0
2769,2308568,0.03847613,2.308568,540.0
2770,2309400,0.03849,2.3094,499.0
2771,2310236,0.038503934,2.310236,522.0
2772,2311068,0.0385178,2.311068,485.0
2773,2311900,0.03853167,2.3119,526.0
2774,2312736,0.0385456,2.312736,488.0
2775,2313568,0.038559467,2.313568,526.0
2776,2314400,0.038573332,2.3144,504.0
2777,2315236,0.03858727,2.315236,529.0
2778,2316068,0.038601134,2.316068,516.0
2779,2316900,0.038615,2.3169,514.0
2780,2317736,0.038628932,2.317736,502.0
2781,2318568,0.0386428,2.318568,499.0
2782,2319400,0.038656667,2.3194,497.0
2783,2320236,0.0386706,2.320236,521.0
2784,2321068,0.038684465,2.321068,497.0
2785,2321900,0.038698334,2.3219,513.0
2786,2322736,0.038712267,2.322736,492.0
2787,2323568,0.038726132,2.323568,529.0
2788,2324400,0.03874,2.3244,528.0
2789,2325236,0.038753934,2.325236,521.0
2790,2326068,0.0387678,2.326068,499.0
2791,2326900,0.038781665,2.3269,512.0
2792,2327736,0.0387956,2.327736,509.0
2793,2328568,0.038809467,2.328568,538.0
2794,2329400,0.038823333,2.3294,526.0
2795,2330236,0.038837265,2.330236,511.0
2796,2331068,0.038851134,2.331068,500.0
2797,2331900,0.038865,2.3319,509.0
2798,2332736,0.038878933,2.332736,519.0
2799,2333568,0.0388928,2.333568,526.0
2800,2334404,0.038906734,2.334404,542.0
2801,2335236,0.0389206,2.335236,517.0
2802,2336068,0.038934465,2.336068,478.0
2803,2336904,0.0389484,2.336904,502.0
2804,2337736,0.038962267,2.337736,511.0
2805,2338568,0.038976133,2.338568,516.0
2806,2339404,0.038990065,2.339404,508.0
2807,2340236,0.039003935,2.340236,503.0
2808,2341068,0.0390178,2.341068,523.0
2809,2341904,0.039031733,2.341904,513.0
2810,2342736,0.0390456,2.342736,518.0
2811,2343568,0.039059468,2.343568,497.0
2812,2344404,0.0390734,2.344404,524.0
2813,2345236,0.039087266,2.345236,496.0
2814,2346068,0.039101135,2.346068,514.0
2815,2346904,0.039115068,2.346904,512.0
2816,2347736,0.039128933,2.347736,538.0
2817,2348568,0.0391428,2.348568,533.0
2818,2349404,0.039156735,2.349404,519.0
2819,2350236,0.0391706,2.350236,526.0
2820,2351068,0.039184466,2.351068,526.0
2821,2351904,0.0391984,2.351904,516.0
2822,2352736,0.039212268,2.352736,482.0
2823,2353568,0.039226133,2.353568,490.0
2824,2354404,0.039240066,2.354404,524.0
2825,2355236,0.03925393,2.355236,503.0
2826,2356068,0.0392678,2.356068,496.0
2827,2356904,0.039281733,2.356904,490.0
2828,2357736,0.0392956,2.357736,508.0
2829,2358572,0.039309535,2.358572,514.0
2830,2359404,0.0393234,2.359404,519.0
2831,2360236,0.039337266,2.360236,513.0
2832,2361072,0.0393512,2.361072,518.0
2833,2361904,0.039365068,2.361904,506.0
2834,2362736,0.039378934,2.362736,517.0
2835,2363572,0.039392866,2.363572,515.0
2836,2364404,0.03940673,2.364404,513.0
2837,2365236,0.0394206,2.365236,505.0
2838,2366072,0.039434534,2.366072,523.0
2839,2366904,0.0394484,2.366904,535.0
2840,2367736,0.03946227,2.367736,538.0
2841,2368572,0.0394762,2.368572,536.0
2842,2369404,0.039490066,2.369404,525.0
2843,2370236,0.039503932,2.370236,480.0
2844,2371072,0.03951787,2.371072,504.0
2845,2371904,0.039531734,2.371904,512.0
2846,2372736,0.0395456,2.372736,515.0
2847,2373572,0.039559532,2.373572,534.0
2848,2374404,0.0395734,2.374404,494.0
2849,2375236,0.039587267,2.375236,501.0
2850,2376072,0.0396012,2.376072,508.0
2851,2376904,0.039615065,2.376904,521.0
2852,2377736,0.039628934,2.377736,510.0
2853,2378572,0.039642867,2.378572,508.0
2854,2379404,0.039656732,2.379404,492.0
2855,2380236,0.0396706,2.380236,500.0
2856,2381072,0.039684534,2.381072,510.0
2857,2381904,0.0396984,2.381904,496.0
2858,2382736,0.039712265,2.382736,511.0
2859,2383572,0.0397262,2.383572,521.0
2860,2384404,0.039740067,2.384404,531.0
2861,2385236,0.039753933,2.385236,535.0
2862,2386072,0.039767865,2.386072,528.0
2863,2386904,0.039781734,2.386904,507.0
2864,2387740,0.039795667,2.38774,502.0
2865,2388572,0.039809532,2.388572,524.0
2866,2389404,0.0398234,2.389404,561.0
2867,2390240,0.039837334,2.39024,533.0
2868,2391072,0.0398512,2.391072,518.0
2869,2391904,0.039865065,2.391904,486.0
2870,2392740,0.039879,2.39274,512.0
2871,2393572,0.039892867,2.393572,533.0
2872,2394404,0.039906733,2.394404,517.0
2873,2395240,0.039920665,2.39524,517.0
2874,2396072,0.039934535,2.396072,502.0
2875,2396904,0.0399484,2.396904,474.0
2876,2397740,0.039962333,2.39774,489.0
2877,2398572,0.0399762,2.398572,506.0
2878,2399404,0.039990067,2.399404,503.0
2879,2400240,0.040004,2.40024,529.0
2880,2401072,0.040017866,2.401072,520.0
2881,2401904,0.040031735,2.401904,493.0
2882,2402740,0.040045667,2.40274,512.0
2883,2403572,0.040059533,2.403572,524.0
2884,2404404,0.0400734,2.404404,495.0
2885,2405240,0.040087335,2.40524,498.0
2886,2406072,0.0401012,2.406072,525.0
2887,2406904,0.040115066,2.406904,520.0
2888,2407740,0.040129,2.40774,509.0
2889,2408572,0.040142868,2.408572,530.0
2890,2409404,0.040156733,2.409404,539.0
2891,2410240,0.040170666,2.41024,551.0
2892,2411072,0.040184535,2.411072,515.0
2893,2411904,0.0401984,2.411904,529.0
2894,2412740,0.040212333,2.41274,505.0
2895,2413576,0.040226266,2.413576,485.0
2896,2414408,0.040240135,2.414408,480.0
2897,2415240,0.040254,2.41524,533.0
2898,2416072,0.040267866,2.416072,526.0
2899,2416908,0.0402818,2.416908,515.0
2900,2417740,0.040295668,2.41774,491.0
2901,2418572,0.040309533,2.418572,488.0
2902,2419408,0.040323466,2.419408,520.0
2903,2420240,0.04033733,2.42024,533.0
2904,2421072,0.0403512,2.421072,496.0
2905,2421908,0.040365133,2.421908,503.0
2906,2422740,0.040379,2.42274,485.0
2907,2423572,0.04039287,2.423572,501.0
2908,2424408,0.0404068,2.424408,524.0
2909,2425240,0.040420666,2.42524,540.0
2910,2426072,0.040434532,2.426072,540.0
2911,2426908,0.04044847,2.426908,517.0
2912,2427740,0.040462334,2.42774,543.0
2913,2428572,0.0404762,2.428572,507.0
2914,2429408,0.04049013,2.429408,521.0
2915,2430240,0.040504,2.43024,513.0
2916,2431072,0.040517867,2.431072,506.0
2917,2431908,0.0405318,2.431908,530.0
2918,2432740,0.04054567,2.43274,525.0
2919,2433572,0.040559534,2.433572,512.0
2920,2434408,0.040573467,2.434408,490.0
2921,2435240,0.040587332,2.43524,469.0
2922,2436072,0.0406012,2.436072,526.0
2923,2436908,0.040615134,2.436908,513.0
2924,2437740,0.040629,2.43774,478.0
2925,2438572,0.040642865,2.438572,500.0
2926,2439408,0.0406568,2.439408,476.0
2927,2440240,0.040670667,2.44024,498.0
2928,2441076,0.0406846,2.441076,537.0
2929,2441908,0.040698465,2.441908,531.0
2930,2442740,0.040712334,2.44274,513.0
2931,2443576,0.040726267,2.443576,505.0
2932,2444408,0.040740132,2.444408,509.0
2933,2445240,0.040754,2.44524,525.0
2934,2446076,0.040767934,2.446076,520.0
2935,2446908,0.0407818,2.446908,514.0
2936,2447740,0.040795665,2.44774,504.0
2937,2448576,0.0408096,2.448576,540.0
2938,2449408,0.040823467,2.449408,507.0
2939,2450240,0.040837333,2.45024,516.0
2940,2451076,0.040851265,2.451076,519.0
2941,2451908,0.040865134,2.451908,534.0
2942,2452740,0.040879,2.45274,503.0
2943,2453576,0.040892933,2.453576,506.0
2944,2454408,0.0409068,2.454408,480.0
2945,2455240,0.040920667,2.45524,490.0
2946,2456076,0.0409346,2.456076,481.0
2947,2456908,0.040948465,2.456908,523.0
2948,2457740,0.040962335,2.45774,514.0
2949,2458576,0.040976267,2.458576,540.0
2950,2459408,0.040990133,2.459408,484.0
2951,2460240,0.041004,2.46024,517.0
2952,2461076,0.041017935,2.461076,501.0
2953,2461908,0.0410318,2.461908,521.0
2954,2462740,0.041045666,2.46274,535.0
2955,2463576,0.0410596,2.463576,519.0
2956,2464408,0.041073468,2.464408,516.0
2957,2465244,0.0410874,2.465244,515.0
2958,2466076,0.041101266,2.466076,542.0
2959,2466908,0.041115135,2.466908,509.0
2960,2467744,0.041129068,2.467744,511.0
2961,2468576,0.041142933,2.468576,515.0
2962,2469408,0.0411568,2.469408,533.0
2963,2470244,0.041170735,2.470244,511.0
2964,2471076,0.0411846,2.471076,524.0
2965,2471908,0.041198466,2.471908,479.0
2966,2472744,0.0412124,2.472744,501.0
2967,2473576,0.041226268,2.473576,489.0
2968,2474408,0.041240133,2.474408,509.0
2969,2475244,0.041254066,2.475244,513.0
2970,2476076,0.041267935,2.476076,525.0
2971,2476908,0.0412818,2.476908,503.0
2972,2477744,0.041295733,2.477744,513.0
2973,2478576,0.0413096,2.478576,500.0
2974,2479408,0.041323468,2.479408,520.0
2975,2480244,0.0413374,2.480244,508.0
2976,2481076,0.041351266,2.481076,524.0
2977,2481908,0.04136513,2.481908,538.0
2978,2482744,0.041379068,2.482744,525.0
2979,2483576,0.041392934,2.483576,529.0
2980,2484408,0.0414068,2.484408,534.0
2981,2485244,0.04142073,2.485244,519.0
2982,2486076,0.0414346,2.486076,482.0
2983,2486908,0.041448466,2.486908,463.0
2984,2487744,0.0414624,2.487744,493.0
2985,2488576,0.04147627,2.488576,502.0
2986,2489408,0.041490134,2.489408,522.0
2987,2490244,0.041504066,2.490244,515.0
2988,2491076,0.041517932,2.491076,538.0
2989,2491912,0.04153187,2.491912,526.0
2990,2492744,0.041545734,2.492744,525.0
2991,2493576,0.0415596,2.493576,526.0
2992,2494412,0.041573532,2.494412,517.0
2993,2495244,0.0415874,2.495244,501.0
2994,2496076,0.041601267,2.496076,501.0
2995,2496912,0.0416152,2.496912,530.0
2996,2497744,0.041629065,2.497744,506.0
2997,2498576,0.041642934,2.498576,507.0
2998,2499412,0.041656867,2.499412,528.0
2999,2500244,0.041670732,2.500244,485.0
3000,2501076,0.0416846,2.501076,504.0
3001,2501912,0.041698534,2.501912,504.0
3002,2502744,0.0417124,2.502744,520.0
3003,2503576,0.041726265,2.503576,510.0
3004,2504412,0.0417402,2.504412,507.0
3005,2505244,0.041754067,2.505244,500.0
3006,2506076,0.041767932,2.506076,494.0
3007,2506912,0.041781865,2.506912,505.0
3008,2507744,0.041795734,2.507744,532.0
3009,2508576,0.0418096,2.508576,543.0
3010,2509412,0.041823532,2.509412,545.0
3011,2510244,0.0418374,2.510244,526.0
3012,2511076,0.041851267,2.511076,522.0
3013,2511912,0.0418652,2.511912,518.0
3014,2512744,0.041879065,2.512744,519.0
3015,2513576,0.041892935,2.513576,509.0
3016,2514412,0.041906867,2.514412,500.0
3017,2515244,0.041920733,2.515244,477.0
3018,2516076,0.0419346,2.516076,496.0
3019,2516912,0.041948535,2.516912,516.0
3020,2517744,0.0419624,2.517744,514.0
3021,2518576,0.041976266,2.518576,525.0
3022,2519412,0.0419902,2.519412,538.0
3023,2520244,0.042004067,2.520244,527.0
3024,2521080,0.042018,2.52108,509.0
3025,2521912,0.042031866,2.521912,532.0
3026,2522744,0.042045735,2.522744,552.0
3027,2523580,0.042059667,2.52358,523.0
3028,2524412,0.042073533,2.524412,500.0
3029,2525244,0.0420874,2.525244,519.0
3030,2526080,0.042101335,2.52608,508.0
3031,2526912,0.0421152,2.526912,497.0
3032,2527744,0.042129066,2.527744,528.0
3033,2528580,0.042143,2.52858,534.0
3034,2529412,0.042156868,2.529412,493.0
3035,2530244,0.042170733,2.530244,478.0
3036,2531080,0.042184666,2.53108,499.0
3037,2531912,0.042198535,2.531912,524.0
3038,2532744,0.0422124,2.532744,519.0
3039,2533580,0.042226333,2.53358,542.0
3040,2534412,0.0422402,2.534412,517.0
3041,2535244,0.042254068,2.535244,498.0
3042,2536080,0.042268,2.53608,514.0
3043,2536912,0.042281866,2.536912,516.0
3044,2537744,0.04229573,2.537744,540.0
3045,2538580,0.042309668,2.53858,526.0
3046,2539412,0.042323533,2.539412,505.0
3047,2540244,0.0423374,2.540244,492.0
3048,2541080,0.04235133,2.54108,491.0
3049,2541912,0.0423652,2.541912,526.0
3050,2542744,0.042379066,2.542744,513.0
3051,2543580,0.042393,2.54358,531.0
3052,2544412,0.04240687,2.544412,503.0
3053,2545248,0.0424208,2.545248,506.0
3054,2546080,0.042434666,2.54608,507.0
3055,2546912,0.04244853,2.546912,500.0
3056,2547748,0.04246247,2.547748,515.0
3057,2548580,0.042476334,2.54858,513.0
3058,2549412,0.0424902,2.549412,521.0
3059,2550248,0.04250413,2.550248,507.0
3060,2551080,0.042518,2.55108,498.0
3061,2551912,0.042531867,2.551912,502.0
3062,2552748,0.0425458,2.552748,525.0
3063,2553580,0.04255967,2.55358,527.0
3064,2554412,0.042573534,2.554412,555.0
3065,2555248,0.042587467,2.555248,530.0
3066,2556080,0.042601332,2.55608,477.0
3067,2556912,0.0426152,2.556912,491.0
3068,2557748,0.042629134,2.557748,479.0
3069,2558580,0.042643,2.55858,516.0
3070,2559412,0.042656865,2.559412,523.0
3071,2560248,0.0426708,2.560248,526.0
3072,2561080,0.042684667,2.56108,534.0
3073,2561912,0.042698532,2.561912,519.0
3074,2562748,0.042712465,2.562748,527.0
3075,2563580,0.042726334,2.56358,512.0
3076,2564412,0.0427402,2.564412,501.0
3077,2565248,0.042754132,2.565248,513.0
3078,2566080,0.042768,2.56608,500.0
3079,2566912,0.042781867,2.566912,510.0
3080,2567748,0.0427958,2.567748,494.0
3081,2568580,0.042809665,2.56858,484.0
3082,2569412,0.042823534,2.569412,490.0
3083,2570248,0.042837467,2.570248,535.0
3084,2571080,0.042851333,2.57108,541.0
3085,2571916,0.042865265,2.571916,517.0
3086,2572748,0.042879134,2.572748,513.0
3087,2573580,0.042893,2.57358,536.0
3088,2574416,0.042906933,2.574416,554.0
3089,2575248,0.0429208,2.575248,484.0
3090,2576080,0.042934667,2.57608,498.0
3091,2576916,0.0429486,2.576916,514.0
3092,2577748,0.042962465,2.577748,490.0
3093,2578580,0.042976335,2.57858,514.0
3094,2579416,0.042990267,2.579416,524.0
3095,2580248,0.043004133,2.580248,535.0
3096,2581080,0.043018,2.58108,527.0
3097,2581916,0.043031935,2.581916,504.0
3098,2582748,0.0430458,2.582748,544.0
3099,2583580,0.043059666,2.58358,529.0
3100,2584416,0.0430736,2.584416,525.0
3101,2585248,0.043087468,2.585248,510.0
3102,2586080,0.043101333,2.58608,506.0
3103,2586916,0.043115266,2.586916,475.0
3104,2587748,0.043129135,2.587748,492.0
3105,2588580,0.043143,2.58858,531.0
3106,2589416,0.043156933,2.589416,539.0
3107,2590248,0.0431708,2.590248,507.0
3108,2591080,0.043184668,2.59108,516.0
3109,2591916,0.0431986,2.591916,502.0
3110,2592748,0.043212466,2.592748,503.0
3111,2593580,0.04322633,2.59358,541.0
3112,2594416,0.043240268,2.594416,525.0
3113,2595248,0.043254133,2.595248,496.0
3114,2596080,0.043268,2.59608,496.0
3115,2596916,0.043281935,2.596916,509.0
3116,2597748,0.0432958,2.597748,520.0
3117,2598584,0.043309733,2.598584,522.0
3118,2599416,0.0433236,2.599416,535.0
3119,2600248,0.043337468,2.600248,536.0
3120,2601084,0.0433514,2.601084,528.0
3121,2601916,0.043365266,2.601916,515.0
3122,2602748,0.04337913,2.602748,507.0
3123,2603584,0.043393068,2.603584,505.0
3124,2604416,0.043406934,2.604416,494.0
3125,2605248,0.0434208,2.605248,493.0
3126,2606088,0.0434348,2.606088,507.0
3127,2606916,0.0434486,2.606916,493.0
3128,2607748,0.043462466,2.607748,483.0
3129,2608584,0.0434764,2.608584,518.0
3130,2609416,0.04349027,2.609416,509.0
